Ay,Ax,B,ux,uy,phi,t
0.0,-10.0,-3.0,0.0,-4.6333159741449135e-17,-8.5600651100149e-17,1.4134550000017043
0.0,-10.0,-2.0,0.0,-4.7342485589431296e-17,-9.118980150526964e-17,1.421438199991826
0.0,-10.0,-1.0,0.0,-1.4711068974366823e-23,-1.919738788589301e-23,1.5604434999986552
0.0,-10.0,0.0,0.0,2.059582674647271e-18,2.2403568616183792e-18,1.4889288999984274
0.0,-10.0,1.0,0.0,-9.496015680006814e-25,-1.2287501929443836e-24,1.4715159000043059
0.0,-10.0,2.0,0.0,1.6247311100739822e-17,1.6262754594154584e-17,1.387927399991895
0.0,-10.0,3.0,0.0,-2.0717400050461457e-18,-1.903735051626767e-18,1.3696462999942014
0.5,-10.0,-3.0,-0.0010739724881558832,0.04200822146188908,-4.1247039892635534e-05,2.8185253999981796
0.5,-10.0,-2.0,-0.0010666836171858707,0.04188686136997952,-2.5148045981009822e-05,2.9425106000126107
0.5,-10.0,-1.0,-0.0010635418353389658,0.04183290077971247,-8.737629855476048e-06,2.8264093000034336
0.5,-10.0,0.0,-0.0010640715465136674,0.04184495200064135,7.4044418538117785e-06,2.5201237999863224
0.5,-10.0,1.0,nan,nan,nan,15.004043299995828
0.5,-10.0,2.0,-0.0010766513860152038,0.04206914779727814,3.987623531382059e-05,2.768516100011766
0.5,-10.0,3.0,-0.0010888192516694817,0.04228632858538706,5.823502162042205e-05,4.042251699996996
1.0,-10.0,-3.0,-0.004225739807261042,0.08323643947386591,-0.0001366225149652577,1.696509800007334
1.0,-10.0,-2.0,-0.004207231992180649,0.08308656751719715,-7.224504762889685e-05,1.5511808000010205
1.0,-10.0,-1.0,-0.004204371567219534,0.0830698203045166,-5.722590724443051e-06,1.5949097999982769
1.0,-10.0,0.0,-0.004215768668657027,0.0831837152245785,6.060906492172383e-05,1.6419138000055682
1.0,-10.0,1.0,-0.004242983410598367,0.08342522324622184,0.00012276457852981065,3.0442781999881845
1.0,-10.0,2.0,-0.0042834980062287364,0.08381379425447791,0.00019694557155205462,1.6191268999973545
1.0,-10.0,3.0,-0.00434132454534808,0.08434056039671617,0.0002692030590074752,1.752578400002676
2.0,-10.0,-3.0,nan,nan,nan,15.00499879999552
2.0,-10.0,-2.0,-0.016048209732250296,0.16172380247238785,-5.3601264412094315e-05,1.6265710999869043
2.0,-10.0,-1.0,-0.016103871016244886,0.16201958925800408,0.00020674788323527102,1.5560273000010056
2.0,-10.0,0.0,-0.016216319571307536,0.16256570302057294,0.000465722722369201,1.97477240000444
2.0,-10.0,1.0,-0.016387341687853274,0.1633815502770246,0.0007366689422585289,1.5888182000053348
2.0,-10.0,2.0,-0.01662063329817176,0.16447577043312056,0.0010178090848816709,1.6719894999987446
2.0,-10.0,3.0,-0.016924598610191577,0.1658746622819472,0.0013213645558522017,1.6051880000013625
3.0,-10.0,-3.0,-0.033646857105986805,0.23293578486284403,-0.00021779637671586854,1.5498770999984117
3.0,-10.0,-2.0,-0.03377701993461224,0.23341980103478982,0.00034509241343807416,14.352986099998816
3.0,-10.0,-1.0,nan,nan,nan,15.011844100008602
3.0,-10.0,0.0,-0.03439261944937044,0.2354784210554834,0.0014950484922472852,1.6704213000048185
3.0,-10.0,1.0,-0.034897397063026525,0.23710055295861632,0.0021117614222356798,1.6348541000043042
3.0,-10.0,2.0,-0.035549996730932065,0.23915554281504547,0.002768572107763866,1.7196318999922369
3.0,-10.0,3.0,-0.03636280200384856,0.24167961343687572,0.0034699785223733922,1.4927451999974437
4.0,-10.0,-3.0,-0.055059412664500984,0.29612105503663155,0.0003534490519322028,13.273518600006355
4.0,-10.0,-2.0,nan,nan,nan,15.005291800000123
4.0,-10.0,-1.0,-0.05605332991171963,0.2987250293464039,0.0023028826035012577,1.505637599999318
4.0,-10.0,0.0,-0.056868515501169226,0.30076384412828905,0.0033455933877975397,1.550318800000241
4.0,-10.0,1.0,-0.05792205028694908,0.30333560726779174,0.004447668784436165,1.507970499995281
4.0,-10.0,2.0,-0.05924628426638079,0.30650719163195184,0.005641607368954375,1.5426548999967054
4.0,-10.0,3.0,-0.060886414342884,0.31035436320271936,0.006957587953155172,1.4810732000041753
5.0,-10.0,-3.0,-0.07864315829418067,0.3514412194844323,0.0015044887585366161,6.919553600004292
5.0,-10.0,-2.0,-0.07944945267844039,0.3531852529358582,0.002969302651860713,1.4685345999896526
5.0,-10.0,-1.0,-0.0805609243171298,0.3554978679795046,0.004499250612865628,1.539532099995995
5.0,-10.0,0.0,-0.0820070280448717,0.35842496961839454,0.006117696600375606,1.6097204000107013
5.0,-10.0,1.0,-0.08383356985536694,0.3620354037814102,0.007861792995336262,1.5236898000002839
5.0,-10.0,2.0,-0.08610977154476362,0.3664349970404187,0.009790892739059961,1.6157079999975394
5.0,-10.0,3.0,-0.08891867985567292,0.3717424068278035,0.011952351662804235,1.5802630999969551
6.0,-10.0,-3.0,-0.10322432525699687,0.3996892813068825,0.0033022178897069224,1.5201292999990983
6.0,-10.0,-2.0,-0.10457542468420811,0.40214123109691663,0.005365701075909397,1.5288453999964986
6.0,-10.0,-1.0,-0.10635145200964702,0.40525596092807425,0.0075356246242195635,1.5129836999985855
6.0,-10.0,0.0,-0.10861696513552,0.40912344382050125,0.00987985773097433,1.5355918999994174
6.0,-10.0,1.0,-0.11144833601973947,0.41383967137264926,0.012448385998088195,1.5467846000101417
6.0,-10.0,2.0,-0.11497018115189994,0.41955686675517334,0.01533630272026833,1.5120897000015248
6.0,-10.0,3.0,-0.11936056469315326,0.42649200849188834,0.01866968543480648,1.5871009999973467
7.0,-10.0,-3.0,-0.12804782306354567,0.44182604506263057,0.005773281250137931,1.5894363000115845
7.0,-10.0,-2.0,-0.13006000352437486,0.44498810070050154,0.00851591973114435,1.7135287999990396
7.0,-10.0,-1.0,-0.13264888705243727,0.44892994512818274,0.011453418238280073,1.5078840000060154
7.0,-10.0,0.0,-0.1359146867480292,0.45375689728690477,0.01466775263292565,1.6694482000020798
7.0,-10.0,1.0,-0.13999519349491074,0.45963147521661407,0.018266894459309787,1.515618599994923
7.0,-10.0,2.0,-0.14510548304123883,0.4667726437293529,0.022406082740645067,1.5765854000055697
7.0,-10.0,3.0,-0.15157971107939516,0.4755421610746887,0.02733393722593539,1.6416113000013866
8.0,-10.0,-3.0,-0.15265114870929974,0.4787806495141984,0.008907116154224362,1.5214504999894416
8.0,-10.0,-2.0,-0.15544050965968337,0.48265666921081163,0.012434159740181153,1.4891586000012467
8.0,-10.0,-1.0,-0.15898696150056013,0.4874273605210715,0.016266606656846233,1.4923751000023913
8.0,-10.0,0.0,-0.16344265501723965,0.49324352797449167,0.02052765369752307,1.5663964999985183
8.0,-10.0,1.0,-0.16904234913445726,0.5003322690896324,0.02540311726992084,1.527611400000751
8.0,-10.0,2.0,-0.17615182356037828,0.5090402256328997,0.03117063585830341,1.4899537000019336
8.0,-10.0,3.0,-0.1853826424985765,0.5199198708812749,0.03827868436119585,1.5244299000041792
9.0,-10.0,-3.0,-0.17678178079987905,0.5113846756455049,0.012703254356620106,1.890440299990587
9.0,-10.0,-2.0,-0.1804569373593714,0.5159689024400668,0.017118973539975896,1.6116266000026371
9.0,-10.0,-1.0,-0.1851017753368529,0.5215709797250354,0.02198339322612127,1.5934919999999693
9.0,-10.0,0.0,-0.19095538218153718,0.5284040313433411,0.027499106162178058,1.6076757999981055
9.0,-10.0,1.0,-0.1983876683288237,0.536786307832962,0.03396030559275559,1.8592244000028586
9.0,-10.0,2.0,-0.20801358993748464,0.5472257709596784,0.04184191904078091,1.8139406999980565
9.0,-10.0,3.0,-0.2210542007623293,0.5607428844687534,0.052133786786172115,2.1566501000052085
10.0,-10.0,-3.0,-0.2003128697824852,0.5403381668252885,0.017152251602374775,1.744621299993014
10.0,-10.0,-2.0,-0.2049783027807628,0.5456188022055937,0.02256414098217821,1.732129599986365
10.0,-10.0,-1.0,-0.21087356982299665,0.5520603314307886,0.028626024509757216,1.6946338999987347
10.0,-10.0,0.0,-0.21832931258386723,0.5599243453346466,0.03560093959197316,1.703637800004799
10.0,-10.0,1.0,-0.22798752378144604,0.5697048669451518,0.04406239114025316,1.8496497000014642
10.0,-10.0,2.0,-0.24087879511257637,0.582192693243913,0.05482842135189071,1.8407060999888927
10.0,-10.0,3.0,nan,nan,nan,15.00867389999621
12.0,-10.0,-3.0,-0.2454139322436265,0.5894822552356309,0.027940906657910883,1.868567699988489
12.0,-10.0,-2.0,-0.25237111943071255,0.5961180540325628,0.03570779360291916,1.8606636000040453
12.0,-10.0,-1.0,-0.2612324614002657,0.6042381656344669,0.04470343541879554,1.8984977999934927
12.0,-10.0,0.0,-0.2727782845508002,0.6143496340387536,0.055650080867491764,2.082169299988891
12.0,-10.0,1.0,-0.28840656472043547,0.6273356221201924,0.06978561874393263,2.0368043999915244
12.0,-10.0,2.0,nan,nan,nan,15.018391700010397
12.0,-10.0,3.0,nan,nan,nan,15.00985600000422
14.0,-10.0,-3.0,-0.28795814255610475,0.6296406757908806,0.041130218925650344,1.5598912999994354
14.0,-10.0,-2.0,-0.2976182710026929,0.63756477890495,0.05180125186688202,1.851325799987535
14.0,-10.0,-1.0,-0.31017738861965993,0.6473876476647002,0.06470093387316014,2.1198445000045467
14.0,-10.0,0.0,-0.32709652838103753,0.6598824081552692,0.08121153957917199,2.0557982999889646
14.0,-10.0,1.0,nan,nan,nan,15.016702900000382
14.0,-10.0,2.0,nan,nan,nan,15.01227469999867
14.0,-10.0,3.0,nan,nan,nan,15.002044699998805
16.0,-10.0,-3.0,-0.32815717868844385,0.6630700451165152,0.05654057310657343,2.002597099999548
16.0,-10.0,-2.0,-0.34091840358521175,0.6721955546789264,0.0707522027597958,2.041434799990384
16.0,-10.0,-1.0,-0.35785715411242913,0.6836090426974034,0.08857877414169005,2.206267799992929
16.0,-10.0,0.0,nan,nan,nan,15.007678599999053
16.0,-10.0,1.0,nan,nan,nan,15.016753200005041
16.0,-10.0,2.0,nan,nan,nan,15.007501600004616
16.0,-10.0,3.0,nan,nan,nan,15.00774210000236
18.0,-10.0,-3.0,-0.3661798130733873,0.691236604896571,0.07389294759604911,1.8131294999911916
18.0,-10.0,-2.0,nan,nan,nan,15.004307900002459
18.0,-10.0,-1.0,nan,nan,nan,15.012094899997464
18.0,-10.0,0.0,nan,nan,nan,15.01617270000861
18.0,-10.0,1.0,nan,nan,nan,15.01358590000018
18.0,-10.0,2.0,nan,nan,nan,15.00990790000651
18.0,-10.0,3.0,nan,nan,nan,15.017363299994031
20.0,-10.0,-3.0,nan,nan,nan,15.003773699994781
20.0,-10.0,-2.0,nan,nan,nan,15.010757699987153
20.0,-10.0,-1.0,nan,nan,nan,15.01394399999117
20.0,-10.0,0.0,nan,nan,nan,15.01662049999868
20.0,-10.0,1.0,nan,nan,nan,15.017091300003813
20.0,-10.0,2.0,nan,nan,nan,15.013183100003516
20.0,-10.0,3.0,nan,nan,nan,15.016125499998452
0.0,-5.0,-3.0,0.0,1.0337836713519295e-18,1.906027757638507e-18,1.4995862000068882
0.0,-5.0,-2.0,0.0,1.8071987769835925e-18,3.1820559544400234e-18,1.508819599999697
0.0,-5.0,-1.0,0.0,-6.7587363176657056e-18,-1.006163108411357e-17,1.4565681000094628
0.0,-5.0,0.0,0.0,3.3455218347724514e-22,5.237589373058053e-22,1.4891978000086965
0.0,-5.0,1.0,0.0,1.3367526353688177e-18,1.7309218322006652e-18,1.5230889999947976
0.0,-5.0,2.0,0.0,1.286053577370109e-18,-7.973631066474644e-21,1.4514417000027606
0.0,-5.0,3.0,0.0,1.3854691075210282e-18,1.142107170804171e-18,1.4578729000058956
0.5,-5.0,-3.0,-0.0004693284261393371,0.02786677032444687,-1.7814737863267742e-05,2.513324300001841
0.5,-5.0,-2.0,-0.0004669998218964633,0.027811968841660685,-1.1752428948634574e-05,2.1678857000079006
0.5,-5.0,-1.0,-0.0004661787915365423,0.027785120398110624,-4.280025300016217e-06,2.572037400008412
0.5,-5.0,0.0,-0.00046611383582850774,0.027784123088389977,1.717517504309501e-06,1.50197169999592
0.5,-5.0,1.0,-0.0004668612910878611,0.027810866421526977,9.271771499730305e-06,2.5746871000010287
0.5,-5.0,2.0,-0.0004690238315258055,0.027863584126680406,1.533214089033732e-05,2.170200200009276
0.5,-5.0,3.0,-0.0004720510967547442,0.027944410653905825,2.2317277627961642e-05,2.5473733999970136
1.0,-5.0,-3.0,-0.001863760150968452,0.05552923396978876,-5.880647771436565e-05,1.578524299999117
1.0,-5.0,-2.0,-0.0018569802141013003,0.05544568418288247,-3.3600831681973477e-05,1.5172265000001062
1.0,-5.0,-1.0,-0.0018551745484453042,0.05541862124758552,-3.7679474720539782e-06,1.5925462000013795
1.0,-5.0,0.0,-0.0018562751204760364,0.05543641144621965,1.271439655145106e-05,1.500338699988788
1.0,-5.0,1.0,-0.001861149595903,0.05551547635206203,4.149886348223811e-05,1.6426091000030283
1.0,-5.0,2.0,-0.0018711299481189991,0.0556458523767088,6.636587903275908e-05,1.5534326000051806
1.0,-5.0,3.0,-0.0018850201298979963,0.05583417770625804,9.519692819871757e-05,1.59569499999634
2.0,-5.0,-3.0,-0.007305887945590728,0.10974020987436348,-0.00018281368075086235,1.659080500001437
2.0,-5.0,-2.0,-0.007294556341456593,0.10967893528611952,-7.297462304827708e-05,1.594288799999049
2.0,-5.0,-1.0,-0.007297570353188343,0.10971813890820287,2.8855166194326527e-05,1.7901738999935333
2.0,-5.0,0.0,-0.007317381223434727,0.10986326856898693,0.0001327522314728168,1.5999015999987023
2.0,-5.0,1.0,-0.0073532844411676734,0.11011786120190926,0.00024201989706125438,1.5892678999953205
2.0,-5.0,2.0,-0.007406406261559972,0.11048061422222642,0.00035175978087764,1.5937169000098947
2.0,-5.0,3.0,-0.007476918506467811,0.1109583706328605,0.0004668357899694355,1.4800512000074377
3.0,-5.0,-3.0,-0.015955161260812867,0.16178029221521015,-0.0002622235371670249,1.515391399996588
3.0,-5.0,-2.0,nan,nan,nan,15.016529200001969
3.0,-5.0,-1.0,-0.015995419265270927,0.16202414773822116,0.00020278713491680528,1.6829135000007227
3.0,-5.0,0.0,-0.01606802586962086,0.1623848167343327,0.0004464267410687289,1.6033072999998694
3.0,-5.0,1.0,-0.016177722855487575,0.1629012918312081,0.0006890036526460662,1.5883374999975786
3.0,-5.0,2.0,-0.016325304721951595,0.16358584582095634,0.0009415696923109147,1.6059783000091556
3.0,-5.0,3.0,-0.016511853996368786,0.16444309644397653,0.0012012296229820833,1.4605833999958122
4.0,-5.0,-3.0,nan,nan,nan,15.012633100006497
4.0,-5.0,-2.0,-0.02736810128469791,0.21124273223752651,0.0001966853615288476,1.597404899992398
4.0,-5.0,-1.0,-0.027481362604899973,0.2116748070745358,0.0006087504988820161,1.709061899993685
4.0,-5.0,0.0,-0.02765424115154258,0.21231364941425998,0.0010274469548964761,1.5584684999921592
4.0,-5.0,1.0,-0.027894071700552914,0.2131716621208349,0.001467387771953885,1.7161622999992687
4.0,-5.0,2.0,-0.02820362655950248,0.21424751070982523,0.0019164964011108045,1.6419491999986349
4.0,-5.0,3.0,-0.028586802862264893,0.21556555086062862,0.002393086655926281,1.5477341000078013
5.0,-5.0,-3.0,-0.04084887489571021,0.2570272954614409,2.5194820939272802e-05,1.5817499999975553
5.0,-5.0,-2.0,-0.04099112164122576,0.2575072826014645,0.0006548759038747051,1.6237846000003628
5.0,-5.0,-1.0,-0.04122804078301989,0.2582338573225544,0.001296759120492443,1.7062741000117967
5.0,-5.0,0.0,-0.041562129916351775,0.25921486634595103,0.001954831635991268,1.5986363999982132
5.0,-5.0,1.0,-0.04199765366364505,0.26046457335018136,0.0026376974757505063,1.8165028000075836
5.0,-5.0,2.0,-0.042541870228528955,0.2619977825129032,0.0033514131451640116,1.586498800010304
5.0,-5.0,3.0,-0.04320753074803485,0.2638385731359258,0.004111402296341623,1.6315528999984963
6.0,-5.0,-3.0,nan,nan,nan,15.010283199997502
6.0,-5.0,-2.0,-0.05629994812981787,0.3004445319596638,0.001411795030744104,1.5670219000021461
6.0,-5.0,-1.0,-0.056716619244964184,0.30150469040164574,0.0023257117617633064,1.5175558000046294
6.0,-5.0,0.0,-0.05726950129884245,0.3028692329121736,0.0032684209271804125,1.5026660000003176
6.0,-5.0,1.0,-0.05797261626314443,0.3045592278615027,0.00425934530545287,1.5530562000058126
6.0,-5.0,2.0,-0.058835587447109816,0.3065935207947036,0.005301698706828786,1.4828233000007458
6.0,-5.0,3.0,-0.05987758991850933,0.30900522330745017,0.006415810662160189,1.5630356000037864
7.0,-5.0,-3.0,-0.0723342063137431,0.33894460905528445,0.0012754904439463244,1.4941213999991305
7.0,-5.0,-2.0,-0.07281976994609196,0.34004103180325285,0.00249291738584545,1.4670577000069898
7.0,-5.0,-1.0,-0.0734720422637255,0.3414683985435287,0.0037288947990800677,1.491296499996679
7.0,-5.0,0.0,-0.07431185334168044,0.3432436783934485,0.005009746102728064,1.5268983999994816
7.0,-5.0,1.0,-0.07535315820391109,0.3454006332596976,0.006359553403005721,1.4721426000032807
7.0,-5.0,2.0,-0.07662102295749751,0.3479765450360416,0.007806435738332212,1.5371480000030715
7.0,-5.0,3.0,-0.07813808713738668,0.35099875900384203,0.00935271311070485,1.6657141000032425
8.0,-5.0,-3.0,-0.08942899146560723,0.37498050486079565,0.0023717565546256935,1.671458500000881
8.0,-5.0,-2.0,-0.09015236767762103,0.3764156567576208,0.003924999415175386,1.5294121999904746
8.0,-5.0,-1.0,-0.09109844170989034,0.3782263965554049,0.005527753340922075,1.8237212999956682
8.0,-5.0,0.0,-0.09228578606722637,0.3804383362829854,0.007202119674285705,1.4839033000025665
8.0,-5.0,1.0,-0.09374181889620936,0.38308828323006494,0.008979469989372157,1.8023861999972723
8.0,-5.0,2.0,-0.0954987153798621,0.38622206485528027,0.010889670068599295,1.5649523000029149
8.0,-5.0,3.0,-0.0976058403745299,0.38990473746647714,0.012981800113210824,1.6440770000044722
9.0,-5.0,-3.0,-0.10696518131359922,0.4079761041920292,0.0037887146570269397,1.6105209000088507
9.0,-5.0,-2.0,-0.10798045932432343,0.4097672519520557,0.005732565080759976,1.4693870000046445
9.0,-5.0,-1.0,-0.10927150776307504,0.4119734885835191,0.007743420568096692,1.4781576999957906
9.0,-5.0,0.0,-0.11087091647691916,0.4146320851894303,0.009864209310169349,1.5105956999905175
9.0,-5.0,1.0,-0.11281868290776365,0.41779551452822883,0.012141987426146148,1.4919266999932006
9.0,-5.0,2.0,-0.11515850789324811,0.42151408991603295,0.014604681668399132,1.483505399999558
9.0,-5.0,3.0,-0.11796279108441499,0.4258785818365471,0.01732724811681842,1.7050896000000648
10.0,-5.0,-3.0,-0.12470015976084714,0.4381746148939042,0.0055423579508813,1.7181646000099136
10.0,-5.0,-2.0,-0.12605292614687902,0.4403269885419533,0.007914810439404691,1.8013999999966472
10.0,-5.0,-1.0,-0.12774326169016603,0.44293465827975775,0.01038286968391704,1.7740056000038749
10.0,-5.0,0.0,-0.1298171659619929,0.4460476161762586,0.01300732799552051,1.73181489999115
10.0,-5.0,1.0,-0.13232779317367627,0.4497290824405195,0.015843770151657145,1.7409549000003608
10.0,-5.0,2.0,-0.13534620806142905,0.45405499587515585,0.01895438389406211,1.7668674000015017
10.0,-5.0,3.0,-0.1389610335410012,0.45912341884000707,0.022407639113806603,1.751579399991897
12.0,-5.0,-3.0,-0.16008571018965367,0.4911756860315471,0.010062319399961252,1.9598131000093417
12.0,-5.0,-2.0,-0.16224343907087047,0.4940476754836869,0.01341041567521602,1.6971656999958213
12.0,-5.0,-1.0,-0.1648855657197692,0.4974675222996193,0.01694848230217712,1.7086638000037055
12.0,-5.0,0.0,-0.16809328566748483,0.5015035059053643,0.020769085757887218,1.5755364000069676
12.0,-5.0,1.0,-0.17196716366485132,0.5062541421520736,0.02497461338118208,1.8325737999984995
12.0,-5.0,2.0,-0.17664067478512635,0.5118429813038455,0.029681647829797767,1.9721788999886485
12.0,-5.0,3.0,-0.1823407550927454,0.5184641781155592,0.03511118739996566,2.0368202999961795
14.0,-5.0,-3.0,-0.19466596380146584,0.5358889870380557,0.01592754440748073,1.9192952000012156
14.0,-5.0,-2.0,-0.19778781623637465,0.5394656532824638,0.020420100161132035,1.8166770999960136
14.0,-5.0,-1.0,-0.2015724496592337,0.5436821902849023,0.025231687904738988,1.8695115000009537
14.0,-5.0,0.0,-0.20615617607326775,0.5486401704446555,0.030518601487232018,1.9555124999897089
14.0,-5.0,1.0,-0.21171724354726607,0.5544839802836674,0.03646100621995979,1.8889574999921024
14.0,-5.0,2.0,-0.2185151264418037,0.5614064627069062,0.043299645142225174,1.9846392000035848
14.0,-5.0,3.0,-0.22696688055493763,0.5697420235482228,0.0514598264207567,1.9417794999899343
16.0,-5.0,-3.0,-0.2280121293424735,0.573928724913537,0.023091327971457274,1.9309512000036193
16.0,-5.0,-2.0,-0.2322375984469488,0.5781798075430777,0.028896494208420116,2.0051089000044158
16.0,-5.0,-1.0,-0.23734088229465466,0.5831622489260309,0.03519764214436502,2.0532348999986425
16.0,-5.0,0.0,-0.24354257402315183,0.589025476282409,0.042258278616632575,2.100083999990602
16.0,-5.0,1.0,-0.2511342337543083,0.5959614905006041,0.05036651615486257,1.957275100008701
16.0,-5.0,2.0,nan,nan,nan,15.012551299994811
16.0,-5.0,3.0,nan,nan,nan,15.006939400002011
18.0,-5.0,-3.0,-0.2599617560560944,0.606582934798561,0.03148493800371463,1.6749842999997782
18.0,-5.0,-2.0,-0.2654064971277008,0.6114623067806662,0.038757721870002385,1.5903610000095796
18.0,-5.0,-1.0,-0.2719890713339056,0.6171641211175107,0.04677756988082413,1.9059144999919226
18.0,-5.0,0.0,-0.2800373929811286,0.6238869342320211,0.0559355679576236,2.054785100001027
18.0,-5.0,1.0,nan,nan,nan,15.002366999993683
18.0,-5.0,2.0,nan,nan,nan,15.012937899999088
18.0,-5.0,3.0,nan,nan,nan,15.006661999999778
20.0,-5.0,-3.0,-0.29048600282454096,0.6348592928251908,0.04102663235317597,1.7438763999962248
20.0,-5.0,-2.0,-0.2972307327242989,0.6402905635303707,0.04988554703442219,1.9747882999945432
20.0,-5.0,-1.0,nan,nan,nan,15.02180970000336
20.0,-5.0,0.0,nan,nan,nan,15.01289650000399
20.0,-5.0,1.0,nan,nan,nan,15.007070100007695
20.0,-5.0,2.0,nan,nan,nan,15.011458400011179
20.0,-5.0,3.0,nan,nan,nan,15.018013400011114
0.0,-4.0,-3.0,0.0,1.5476417347785575e-18,2.535506066161293e-18,1.441128899998148
0.0,-4.0,-2.0,0.0,-8.340421295019263e-21,-5.685535472563246e-19,1.4063338999985717
0.0,-4.0,-1.0,0.0,-4.447968058218093e-17,-6.186688907328925e-17,1.52920139998605
0.0,-4.0,0.0,0.0,5.329051758882173e-17,8.819573148696121e-17,1.471518799997284
0.0,-4.0,1.0,0.0,1.2441218516919768e-17,1.6888478904296822e-17,1.4997605999960797
0.0,-4.0,2.0,0.0,3.0151904131948876e-18,2.6315500244683133e-18,1.4384795999940252
0.0,-4.0,3.0,0.0,-3.341653851119889e-18,-2.980649350619e-18,1.431409500000882
0.5,-4.0,-3.0,-0.00041157158403182237,0.02611286087743106,-1.5514603360219948e-05,2.327774199991836
0.5,-4.0,-2.0,-0.0004083150021274573,0.026062535351331413,-1.450761418724991e-05,2.4920060000004014
0.5,-4.0,-1.0,-0.0004074382363781215,0.026038399971246337,-8.61139520994524e-06,2.5489503999997396
0.5,-4.0,0.0,nan,nan,nan,15.011939099989831
0.5,-4.0,1.0,-0.00040958281511493944,0.026061979754192242,7.542685135607641e-06,2.159741000010399
0.5,-4.0,2.0,-0.0004112202796382469,0.02610713753340119,1.316697025867904e-05,2.352671900007408
0.5,-4.0,3.0,-0.0004136528875969825,0.026176222927094043,1.917256795628198e-05,2.4719655999942916
1.0,-4.0,-3.0,-0.0016359764230066132,0.05205968141718813,-5.221559724463684e-05,1.4925000999937765
1.0,-4.0,-2.0,-0.0016295304551993128,0.051983963998804894,-3.261781670382147e-05,1.557270500008599
1.0,-4.0,-1.0,-0.0016292345746948822,0.0519568647217426,-8.591827900208177e-06,1.6118322999973316
1.0,-4.0,0.0,-0.001629076695671472,0.05197285150801397,9.896754425288713e-06,2.95486019999953
1.0,-4.0,1.0,-0.0016336897968707298,0.05203802794728802,3.3885402948899865e-05,1.686805799996364
1.0,-4.0,2.0,-0.0016411841912102876,0.052149387302340505,5.7087526771273754e-05,1.6184612999932142
1.0,-4.0,3.0,-0.0016521928936344965,0.052309189104620804,8.16435991534259e-05,1.5201582000008784
2.0,-4.0,-3.0,-0.00643044366499268,0.10304816408059923,-0.00016493620334938987,1.6135205000027781
2.0,-4.0,-2.0,-0.00641931693832043,0.10298556411004411,-7.072715555734659e-05,1.5620739000005415
2.0,-4.0,-1.0,nan,nan,nan,15.01663899999403
2.0,-4.0,0.0,-0.0064359440410279856,0.1031282760134928,0.0001092820607480606,1.5813116000063019
2.0,-4.0,1.0,-0.006463954854244336,0.10333924421001921,0.00020361132446291598,1.5250742999924114
2.0,-4.0,2.0,-0.006506031109415611,0.10364284450212063,0.000297313611109419,1.575451199998497
2.0,-4.0,3.0,-0.006561960878786355,0.1040454878421099,0.0003959416936642039,1.5992375000059837
3.0,-4.0,-3.0,-0.014098647344914284,0.15225693881766178,-0.00024743981040039925,1.5507163000002038
3.0,-4.0,-2.0,nan,nan,nan,15.013920299999882
3.0,-4.0,-1.0,-0.01412269354114637,0.15243155645173026,0.00015589793655384175,1.5965946999931475
3.0,-4.0,0.0,-0.014178864580408956,0.15272558821901439,0.0003677209607512726,1.5913913999975193
3.0,-4.0,1.0,-0.014264689747534032,0.1531527958637386,0.0005754332059918169,1.643645899996045
3.0,-4.0,2.0,-0.01438087563806234,0.15372528562881424,0.0007923341478192573,1.5541766999958782
3.0,-4.0,3.0,-0.014528083905781974,0.1544451011998274,0.001013630310256963,1.6290800999995554
4.0,-4.0,-3.0,nan,nan,nan,15.012011700004223
4.0,-4.0,-2.0,-0.0243050266680771,0.1993199351990235,0.00017164679372722068,1.542389700000058
4.0,-4.0,-1.0,-0.0243709585824039,0.19964819071552511,0.0004844250051085801,1.514259999996284
4.0,-4.0,0.0,-0.02450453061130964,0.2001726582182286,0.0008461544787560021,1.5816531000018585
4.0,-4.0,1.0,-0.024692082007879868,0.2008858371046821,0.0012245739388288767,1.621833900004276
4.0,-4.0,2.0,-0.02493608473201725,0.201786506935109,0.0016097914170362662,1.5292513000022154
4.0,-4.0,3.0,-0.02523908696923849,0.20289358728777884,0.00201688557226314,1.498142700002063
5.0,-4.0,-3.0,-0.036455473523372195,0.2432892431653689,-5.552641907646358e-05,1.4800439999962691
5.0,-4.0,-2.0,-0.03655953368275355,0.2436651344119325,0.0004917115358822006,1.6127551999961725
5.0,-4.0,-1.0,-0.03674012411079042,0.24425594625295566,0.0010467283593992177,1.505849200009834
5.0,-4.0,0.0,-0.03700041332798287,0.2450681719324001,0.0016154406454074884,1.5317592000064906
5.0,-4.0,1.0,-0.03734286831415423,0.24611182269853393,0.0022030009516808948,1.5676158999995096
5.0,-4.0,2.0,-0.0377724139256288,0.24739768180162616,0.0028131919080310974,1.4861201000021538
5.0,-4.0,3.0,-0.03829972839031459,0.24894581139739153,0.00346153380173878,1.574133600006462
6.0,-4.0,-3.0,-0.050271141193926505,0.28454840130454984,0.00034680415279957956,1.5150469999935012
6.0,-4.0,-2.0,-0.05047752903577818,0.2851626199756825,0.0011032225771599692,1.5574425000086194
6.0,-4.0,-1.0,-0.05080075504079318,0.28603748945520036,0.0018972476909853843,1.5329850999987684
6.0,-4.0,0.0,-0.051234763853093,0.2871755021207417,0.0027115188727666888,1.7172610999987228
6.0,-4.0,1.0,-0.05179049811692216,0.28859317822264363,0.0035629586738005776,1.5387351999961538
6.0,-4.0,2.0,-0.052473456688393094,0.29030388324533263,0.004451431628366679,1.4729442999960156
6.0,-4.0,3.0,-0.053301302910279125,0.29233694921876674,0.005401554261803337,1.4950997999985702
7.0,-4.0,-3.0,nan,nan,nan,15.017288800008828
7.0,-4.0,-2.0,-0.06563292969536261,0.32373181320600103,0.0019936637849728603,1.5709251000080258
7.0,-4.0,-1.0,-0.06614451259236276,0.32492130902379734,0.0030668810308674297,1.5267374999966705
7.0,-4.0,0.0,-0.06680918559286553,0.32641256413722236,0.004173686526996496,1.5000224999967031
7.0,-4.0,1.0,-0.06763613473816377,0.328230491798987,0.005331768009819918,1.4371098999981768
7.0,-4.0,2.0,-0.06864367640360314,0.33040341844565063,0.006563651726248754,1.45272919999843
7.0,-4.0,3.0,-0.0698509255912737,0.33295575741193073,0.007877525229471136,1.5703980999969644
8.0,-4.0,-3.0,-0.08108157598394428,0.3582129319072214,0.0017768547231237356,1.5322803000017302
8.0,-4.0,-2.0,-0.08167068443200298,0.3594272509982465,0.003194854885690424,1.4636909999971977
8.0,-4.0,-1.0,-0.08241852802691352,0.3609450314571135,0.004578838499432978,1.496958399991854
8.0,-4.0,0.0,-0.08336415375044814,0.3628134999822892,0.006023415234992418,1.4585859999933746
8.0,-4.0,1.0,-0.08452573785014195,0.3650562786629076,0.007545463009064191,1.5092760999978054
8.0,-4.0,2.0,-0.0859300575031483,0.36771163253357064,0.009176467607435644,1.4707835000008345
8.0,-4.0,3.0,-0.08760323191006258,0.3708192088104105,0.01093395756044369,1.6740271000016946
9.0,-4.0,-3.0,-0.09747931016678502,0.3908570249035681,0.00299494172896994,1.7844264000013936
9.0,-4.0,-2.0,-0.0982908939560474,0.39236562960763643,0.004707232531988483,1.5279699000093387
9.0,-4.0,-1.0,-0.09932169742440311,0.39423339388365775,0.006452367955288363,1.6345080000028247
9.0,-4.0,0.0,-0.10060288548759289,0.3964910077339624,0.0082799956559375,1.5541691000107676
9.0,-4.0,1.0,-0.10216227961928304,0.399178050631371,0.010225564426008124,1.4372086000075797
9.0,-4.0,2.0,-0.10403246735291871,0.40233127487137,0.012311406006311528,1.4508789999963483
9.0,-4.0,3.0,-0.10626387849683194,0.4060194108400208,0.014594906894884158,1.880887499995879
10.0,-4.0,-3.0,-0.11416876482876803,0.42090111325622925,0.004472009803067246,1.8281533999979729
10.0,-4.0,-2.0,-0.11525587272169147,0.42272954388962836,0.006556044928510656,1.889448000001721
10.0,-4.0,-1.0,-0.1166149279001153,0.4249510078038179,0.008696972680389502,1.8620741000049748
10.0,-4.0,0.0,-0.11828457157135153,0.4276064994100011,0.010955614599397884,1.9968479000090156
10.0,-4.0,1.0,-0.12030368893321297,0.4307443086812459,0.013376758659298361,1.806687400006922
10.0,-4.0,2.0,-0.12272056813510379,0.43442085228868277,0.016004182765355306,1.8486290000000736
10.0,-4.0,3.0,-0.12560130721303775,0.43871165002150125,0.01889655238330904,1.8602277000027243
12.0,-4.0,-3.0,-0.14776173282432614,0.47402966641152966,0.008323395988430446,1.52994540000509
12.0,-4.0,-2.0,-0.14951937652220781,0.47650446307639016,0.011263427847334535,1.5928163999924436
12.0,-4.0,-1.0,-0.15166530279197077,0.4794398709811011,0.014318000253324694,1.6035185000073398
12.0,-4.0,0.0,-0.1542684853700409,0.4829096532808548,0.017598345780046168,1.5446422999957576
12.0,-4.0,1.0,-0.15739384308794635,0.4869742279537028,0.02115994535987506,1.473948400001973
12.0,-4.0,2.0,-0.16113762486394068,0.49172863421238955,0.02509758951806939,1.584318400011398
12.0,-4.0,3.0,-0.16563672049091083,0.497300608489063,0.02954009130406228,1.6167934999975841
14.0,-4.0,-3.0,-0.18089100147790438,0.5192057936637603,0.013377379253530918,1.8504394000046887
14.0,-4.0,-2.0,-0.18345838340225162,0.5223076630102756,0.017304613234638652,1.7979111000022385
14.0,-4.0,-1.0,-0.1865588618194003,0.5259626025323666,0.021462430048841248,1.8205524000077276
14.0,-4.0,0.0,-0.19029255591336036,0.5302359457026202,0.02596691772531792,1.8926103999983752
14.0,-4.0,1.0,-0.19478434926736177,0.5352528024871113,0.030964255241620484,2.009931399996276
14.0,-4.0,2.0,-0.20020133996561318,0.5411301457311479,0.03659906345980318,1.9623554999998305
14.0,-4.0,3.0,-0.20679150286084602,0.5480679675548907,0.04310325398693748,1.9412659999943571
16.0,-4.0,-3.0,-0.21304557100572996,0.5578625474263892,0.019604547340854435,2.519904900007532
16.0,-4.0,-2.0,-0.21655281425670592,0.561585191031496,0.024688043893820157,1.9646569000033196
16.0,-4.0,-1.0,-0.22075522789347324,0.5659246725347429,0.030109865539966602,1.8602918000106001
16.0,-4.0,0.0,-0.22581743327862513,0.5709997082175714,0.036089980828625266,1.8178255000093486
16.0,-4.0,1.0,-0.23193341227306707,0.5769498684553058,0.04282619723499217,1.9979290999908699
16.0,-4.0,2.0,-0.23940249095366906,0.5839824231070339,0.05062369755637731,1.953609400006826
16.0,-4.0,3.0,nan,nan,nan,15.011767499992857
18.0,-4.0,-3.0,-0.2440430315929788,0.5912143045716334,0.027078935325588496,2.040260499998112
18.0,-4.0,-2.0,-0.24854373240671634,0.5954898554344104,0.03332036959079508,2.1540142000012565
18.0,-4.0,-1.0,-0.25398408917046833,0.6004820438833487,0.04019433960946372,2.0779153000039514
18.0,-4.0,0.0,-0.2605592731914095,0.6063218138288131,0.04790303367669318,2.061407399989548
18.0,-4.0,1.0,nan,nan,nan,15.005228000009083
18.0,-4.0,2.0,nan,nan,nan,15.007179700012784
18.0,-4.0,3.0,nan,nan,nan,15.003613399996539
20.0,-4.0,-3.0,-0.2737047964398238,0.6201678688618156,0.03548821827577714,2.2474551999912364
20.0,-4.0,-2.0,-0.2793273225100372,0.6249670980462314,0.043123271455714,2.1871152999956394
20.0,-4.0,-1.0,-0.28612035905168276,0.6305580993926537,0.05162941732635991,2.221611300003133
20.0,-4.0,0.0,nan,nan,nan,15.008456499999738
20.0,-4.0,1.0,nan,nan,nan,15.016970099997707
20.0,-4.0,2.0,nan,nan,nan,15.019394500006456
20.0,-4.0,3.0,nan,nan,nan,15.016307999991113
0.0,-3.0,-3.0,0.0,-7.830826751592077e-19,-1.0623517438914807e-18,1.5018840999982785
0.0,-3.0,-2.0,0.0,-1.1214695630415697e-18,-8.333112204662455e-19,1.5083789999916917
0.0,-3.0,-1.0,0.0,-2.918276451585136e-15,-4.272861985526208e-15,1.4380054999928689
0.0,-3.0,0.0,0.0,-5.844514416037508e-25,-1.0179782902846434e-24,1.5047723000025144
0.0,-3.0,1.0,0.0,2.0861862491226723e-15,3.0544878655662014e-15,1.4393800999969244
0.0,-3.0,2.0,0.0,1.6736974824673972e-18,2.19445740446257e-18,1.4837286999973003
0.0,-3.0,3.0,0.0,1.2421204406638382e-18,1.2926489763346288e-18,1.489468500003568
0.5,-3.0,-3.0,-0.0003638496912000688,0.024568095749234853,-1.3608523524386564e-05,2.397150100005092
0.5,-3.0,-2.0,-0.00036242123841767615,0.02452628372457366,-8.48298376684963e-06,2.5643786000000546
0.5,-3.0,-1.0,-0.00036143405671640316,0.024504578152921792,-3.81162893788219e-06,3.598424399999203
0.5,-3.0,0.0,-0.0003616621158161193,0.02450331989174296,1.4983148337137998e-06,2.413449200001196
0.5,-3.0,1.0,-0.0003614637685562805,0.024523425709757928,8.903086796747445e-06,2.652781500000856
0.5,-3.0,2.0,-0.0003634852464945437,0.02456083282224803,1.1408313681488824e-05,2.516607400000794
0.5,-3.0,3.0,-0.00036546741292575735,0.024620436768041674,1.6619279501978522e-05,2.6485355000040727
1.0,-3.0,-3.0,-0.00144741934964554,0.04899949682277899,-4.657363949756466e-05,1.6362692000111565
1.0,-3.0,-2.0,-0.001442917176271985,0.048933475650432115,-2.6328857380603427e-05,1.5952195000136271
1.0,-3.0,-1.0,-0.0014423169550081827,0.04890485443923052,-1.108472862551421e-05,1.5217146999930264
1.0,-3.0,0.0,-0.0014429913558149376,0.048921699991107195,1.3283666263557817e-05,1.7917032999976072
1.0,-3.0,1.0,-0.0014450935533512066,0.048973970042288845,2.9265119035738655e-05,1.5354948000021977
1.0,-3.0,2.0,-0.001451140094873793,0.04906910219506194,4.955538470233766e-05,1.4716310000076191
1.0,-3.0,3.0,-0.0014600095741633679,0.049206099702640504,7.072418173858769e-05,1.5592463000066346
2.0,-3.0,-3.0,-0.00570175679595919,0.09711733006995779,-0.00014942266428592072,1.5510327000083635
2.0,-3.0,-2.0,nan,nan,nan,15.011503300003824
2.0,-3.0,-1.0,-0.005693219904986391,0.09707007070049047,9.618757270664936e-06,1.4741809999977704
2.0,-3.0,0.0,-0.005703726350341665,0.09716597575067507,8.953686522293588e-05,1.5964597000129288
2.0,-3.0,1.0,-0.005725726240793039,0.09734375610382286,0.00017328164689639548,1.4571435999969253
2.0,-3.0,2.0,-0.005759616650720556,0.09760051215760361,0.00025388181275337867,1.5509728000033647
2.0,-3.0,3.0,-0.005804629065951805,0.09794340712852173,0.0003392146158535512,1.5437013000046136
3.0,-3.0,-3.0,-0.012541557940447534,0.14376027705310032,-0.00023224717667529797,1.6304788999987068
3.0,-3.0,-2.0,-0.012537587503094416,0.1437676830866062,-4.8211437059681974e-05,1.7768859999923734
3.0,-3.0,-1.0,nan,nan,nan,15.011352799992892
3.0,-3.0,0.0,-0.012598994256874496,0.14412667916340394,0.00030689028175278146,1.6985500000009779
3.0,-3.0,1.0,-0.012667313172076256,0.1444833971129161,0.0004857238005989451,1.786869100003969
3.0,-3.0,2.0,-0.012757863987663542,0.14496416256916855,0.0006676995229451753,1.65664139999717
3.0,-3.0,3.0,-0.012878048530900577,0.14557801946418497,0.0008645053294802906,1.5945482999959495
4.0,-3.0,-3.0,nan,nan,nan,15.005912900000112
4.0,-3.0,-2.0,-0.02168273580994362,0.18857110118962442,7.546657700441441e-05,1.509257500001695
4.0,-3.0,-1.0,-0.02174460764331465,0.18885211830689774,0.00038921637642831404,1.5317724000051385
4.0,-3.0,0.0,-0.021849666768868348,0.1892863799170436,0.0007040580436232773,1.5713045000011334
4.0,-3.0,1.0,-0.02199837143107719,0.18988498511937424,0.001032571741062823,1.570695500005968
4.0,-3.0,2.0,-0.022192498090661927,0.19065067889912532,0.0013718530238113224,1.5190636000043014
4.0,-3.0,3.0,-0.0224362117849094,0.19158539247048978,0.0017171928501761987,1.6631452000001445
5.0,-3.0,-3.0,-0.03270189607993235,0.23082186166445695,-0.00011447903686265826,1.527558500005398
5.0,-3.0,-2.0,-0.03277725029337242,0.23111896782017655,0.00036589555292434724,8.924052800008212
5.0,-3.0,-1.0,-0.03291630895186137,0.23160467227143758,0.0008520251508825442,1.607568599996739
5.0,-3.0,0.0,-0.033121775177058055,0.2322830203404493,0.00134806523855905,1.5891452999931062
5.0,-3.0,1.0,-0.03339440115109782,0.2331622806883386,0.001858132019531534,1.5599068000010448
5.0,-3.0,2.0,-0.033737861029812244,0.23425065898711572,0.0023850922122289346,1.5557112000096822
5.0,-3.0,3.0,-0.03416096626841503,0.2355647057976994,0.002943462994541992,1.5674692000029609
6.0,-3.0,-3.0,-0.045299027572335615,0.2706883206535984,0.00018259572940139955,1.684068999995361
6.0,-3.0,-2.0,-0.045458105936379,0.27119253274008764,0.0008607427662118802,1.703344499997911
6.0,-3.0,-1.0,-0.04571338667868252,0.2719211423095027,0.0015608740182290928,1.6696360999922035
6.0,-3.0,0.0,-0.04605788301504665,0.27287755207673803,0.0022702906676765316,1.4941902999999002
6.0,-3.0,1.0,-0.04650221296132484,0.2740764450880544,0.00300856155324398,1.487358200000017
6.0,-3.0,2.0,-0.047051563050891865,0.275529801254268,0.0037788769600939215,1.5803263999987394
6.0,-3.0,3.0,-0.047715116132444724,0.27725626276971477,0.004591675674354975,1.5586091999866767
7.0,-3.0,-3.0,-0.059106893137369054,0.3079669088823415,0.0007130727857190874,1.6354787000018405
7.0,-3.0,-2.0,-0.05938194871393243,0.308700130112286,0.0016051992110949897,1.5457505999947898
7.0,-3.0,-1.0,-0.05978624275054334,0.30969709372215287,0.002542631436581139,1.5329399000038393
7.0,-3.0,0.0,-0.060317551372516154,0.31096213709005616,0.0035120021368243272,1.5338071000005584
7.0,-3.0,1.0,-0.06098150256981527,0.31250601436861863,0.004515028380358589,1.5138097000017297
7.0,-3.0,2.0,-0.06179313416944021,0.31435159661833645,0.005573281542971571,1.5683388000034029
7.0,-3.0,3.0,-0.06276442038945584,0.31652229179081137,0.006696097434130521,1.5371613000024809
8.0,-3.0,-3.0,nan,nan,nan,15.006850899997517
8.0,-3.0,-2.0,-0.0742259722471601,0.34364161641330737,0.002609696401383919,1.593416999996407
8.0,-3.0,-1.0,-0.0748235646824742,0.34492503439389965,0.0038214312516635807,1.544920500004082
8.0,-3.0,0.0,-0.07558388603519939,0.3465135245481846,0.00507866368118304,1.5758344999921974
8.0,-3.0,1.0,-0.07652031670159265,0.3484302805457482,0.006400827915165359,1.7001761999999871
8.0,-3.0,2.0,-0.07765358741885509,0.35069085570964353,0.007797744934149959,1.5639606000040658
8.0,-3.0,3.0,-0.07900065978643522,0.3533385892868827,0.009296167117204619,1.5411587999988114
9.0,-3.0,-3.0,-0.089084067798745,0.37481952251959383,0.002412711387189891,1.6247350000048755
9.0,-3.0,-2.0,-0.08972017483647377,0.3760864929376905,0.003887939740647193,1.6024261000129627
9.0,-3.0,-1.0,-0.09055005737548494,0.3776762096317898,0.005414928915495798,1.4986107999866363
9.0,-3.0,0.0,-0.09158571367330237,0.3796049688011928,0.0070039954017605075,1.486617100003059
9.0,-3.0,1.0,-0.09284709672837099,0.38190307637040555,0.008682814792321508,1.5194455000018934
9.0,-3.0,2.0,-0.09436311069847347,0.38459832804912103,0.01047493223041699,1.5151886999956332
9.0,-3.0,3.0,-0.09616029001612558,0.38774746840492247,0.012416758473449007,1.5996938000025693
10.0,-3.0,-3.0,-0.10474023867564242,0.40459303105261657,0.0035709043956528514,1.9639898000023095
10.0,-3.0,-2.0,-0.10563842262899792,0.4061637401640261,0.005461648845006314,1.9352871000010055
10.0,-3.0,-1.0,-0.10673984374965251,0.4080657712150947,0.007334250556513655,2.102927500003716
10.0,-3.0,0.0,-0.10809586566778995,0.4103443028927374,0.009295686638107883,1.859501499988255
10.0,-3.0,1.0,-0.10973474711639986,0.4130335131615655,0.011378297163646214,1.9569589000020642
10.0,-3.0,2.0,-0.11169379515258382,0.41618650697734444,0.013629546627921204,1.8867774000100326
10.0,-3.0,3.0,-0.11401698173014752,0.4198495169372226,0.016078683929957253,1.8787515000003623
12.0,-3.0,-3.0,-0.13660980368101439,0.45767549350742565,0.006895740571443213,1.6178004999965196
12.0,-3.0,-2.0,-0.13805605513839248,0.45981528694848817,0.00950608732252178,1.5443021999963094
12.0,-3.0,-1.0,-0.13981673259786964,0.46235470916454857,0.012180857227003707,1.5652601000037976
12.0,-3.0,0.0,-0.14194616824712325,0.4653513561189794,0.015018213126951518,1.6465883000055328
12.0,-3.0,1.0,-0.14449719163249952,0.46885771607437704,0.018076734451474154,1.6264631999947596
12.0,-3.0,2.0,-0.14753033075197886,0.47292282276636477,0.021397798674289606,1.5568997999944258
12.0,-3.0,3.0,-0.15114680227525878,0.47768444247130004,0.025119875045328005,1.6114012000034563
14.0,-3.0,-3.0,-0.1683196224325445,0.5031682207582802,0.011270546136683206,1.9653240000043297
14.0,-3.0,-2.0,-0.17045093338370343,0.505878801167182,0.01475175795539527,1.975158300003386
14.0,-3.0,-1.0,-0.17301322973201816,0.5090590945339495,0.018378453937401427,1.8173382000095444
14.0,-3.0,0.0,-0.17608485932992268,0.5127747316945915,0.022266420422766747,1.7099577999906614
14.0,-3.0,1.0,-0.17975823198746987,0.5171084829507162,0.02652396891252116,1.9857417000021087
14.0,-3.0,2.0,-0.1841443984378227,0.5221533818334342,0.03125166555663553,2.03854290000163
14.0,-3.0,3.0,-0.18941237970261482,0.528053632150844,0.03661821663389404,1.9678862000000663
16.0,-3.0,-3.0,-0.19935747921196112,0.5423542921925858,0.016834669942629665,1.7820500999951037
16.0,-3.0,-2.0,-0.2022375057620518,0.5456010070307822,0.021192366805656636,1.704346300000907
16.0,-3.0,-1.0,-0.2057223526601274,0.5493786013407589,0.02588223846672543,1.7564362000121037
16.0,-3.0,0.0,-0.2099113148070072,0.5538316650523492,0.031056291816446903,1.7668937999987975
16.0,-3.0,1.0,-0.2149139816345309,0.558985283093801,0.036755021440235694,1.843009299991536
16.0,-3.0,2.0,-0.22093977996876668,0.5650182918114697,0.04322839649917089,1.8524675999942701
16.0,-3.0,3.0,nan,nan,nan,15.008491200002027
18.0,-3.0,-3.0,-0.2293443292741446,0.576283257404111,0.023335443000243636,1.7529849999991711
18.0,-3.0,-2.0,-0.23310690349733898,0.5800529208807969,0.028782726054986454,1.837130600004457
18.0,-3.0,-1.0,-0.2376477153148553,0.5844484370116055,0.03475053499885946,1.795995499996934
18.0,-3.0,0.0,-0.24308584737887529,0.5895566162810577,0.041335836488818486,1.7590463999949861
18.0,-3.0,1.0,-0.24962420337155922,0.5955139995373808,0.04875417988158884,1.8273255999956746
18.0,-3.0,2.0,nan,nan,nan,15.005224799999269
18.0,-3.0,3.0,nan,nan,nan,15.006147399995825
20.0,-3.0,-3.0,-0.2581808797078633,0.6058564850888158,0.030788571276326948,2.2883509999956004
20.0,-3.0,-2.0,-0.2629105617621257,0.610116489549891,0.0374539085693872,2.232858599993051
20.0,-3.0,-1.0,-0.26860027366494776,0.615064869261853,0.044819357761759285,2.2334626999945613
20.0,-3.0,0.0,nan,nan,nan,15.00575480000407
20.0,-3.0,1.0,nan,nan,nan,15.018678699998418
20.0,-3.0,2.0,nan,nan,nan,15.009313799993834
20.0,-3.0,3.0,nan,nan,nan,15.01019180000003
0.0,-2.0,-3.0,0.0,-1.4739114579437188e-18,-2.585865156010733e-18,1.516612499995972
0.0,-2.0,-2.0,0.0,-1.479333867638797e-17,-1.9495073111475244e-17,1.88767860000371
0.0,-2.0,-1.0,0.0,-5.4745266593326e-15,-8.437953726418795e-15,1.7497789999906672
0.0,-2.0,0.0,0.0,-1.6157704827590247e-18,-2.9576480278361223e-18,1.6639106999937212
0.0,-2.0,1.0,0.0,3.9128024475211004e-15,6.0313100873254615e-15,1.958244299996295
0.0,-2.0,2.0,0.0,6.390685877792324e-18,9.224649096593483e-18,1.8756157000025269
0.0,-2.0,3.0,0.0,3.675552177198422e-18,3.7610446121329016e-18,1.5032729000085965
0.5,-2.0,-3.0,-0.0003239682326885429,0.02319721554556611,-1.201266300003377e-05,2.644741600000998
0.5,-2.0,-2.0,-0.0003227677414386898,0.023160205156885265,-7.5134399451586775e-06,2.524378700007219
0.5,-2.0,-1.0,-0.0003221240977659967,0.023140718207921962,-3.5891624059755856e-06,3.318903899998986
0.5,-2.0,0.0,-0.00032163574962029706,0.023140253276374173,2.8229600895989767e-06,2.5602982999989763
0.5,-2.0,1.0,-0.0003225434508424829,0.023155280518407883,5.471402013988558e-06,3.1986065999954008
0.5,-2.0,2.0,-0.0003236090896319155,0.02318906986765734,9.960707127735291e-06,2.5549301999999443
0.5,-2.0,3.0,-0.00032524429261626686,0.023240917979568218,1.451919769164597e-05,2.427617099994677
1.0,-2.0,-3.0,-0.0012896004376350412,0.04628060988868722,-4.171043080301641e-05,1.5485036000027321
1.0,-2.0,-2.0,-0.0012857247606010702,0.046221419168750576,-2.3691061576230396e-05,1.5052862000011373
1.0,-2.0,-1.0,-0.0012843207812167634,0.046195579932280996,-9.479446256037875e-06,1.4519819999986794
1.0,-2.0,0.0,-0.0012852961891568482,0.0462079095097138,1.0328685529603644e-05,1.487856699997792
1.0,-2.0,1.0,-0.001287299387467522,0.0462529246675367,2.536529510363251e-05,1.5913851999939652
1.0,-2.0,2.0,-0.0012922790435859755,0.04633498440624895,4.334706082855865e-05,1.5324403999984497
1.0,-2.0,3.0,-0.0012995308062657696,0.04645348882892053,6.178407466209834e-05,1.5345908000017516
2.0,-2.0,-3.0,-0.005089124247378507,0.09182723868921004,-0.00013588419042795519,1.5363937000074657
2.0,-2.0,-2.0,nan,nan,nan,15.014756599994143
2.0,-2.0,-1.0,-0.005081021195291857,0.09177617895032664,6.57458350716784e-06,1.6014636000036262
2.0,-2.0,0.0,-0.005087759585620688,0.09185227699194329,7.147706085885682e-05,2.864933899996686
2.0,-2.0,1.0,-0.0051064355724075305,0.09200471695150847,0.00014896246615637683,1.6338588999933563
2.0,-2.0,2.0,-0.0051341522911476645,0.09222388475950022,0.00021875434918327776,1.5732678000058513
2.0,-2.0,3.0,-0.005170846372958726,0.0925185957554295,0.0002931960773471391,1.5720048000075622
3.0,-2.0,-3.0,-0.011223763106142481,0.13613920315728784,-0.00021813010997761073,1.7140906999993604
3.0,-2.0,-2.0,-0.011219181924264632,0.13613199029090162,-5.899968117226654e-05,1.4767938000004506
3.0,-2.0,-1.0,-0.011231830522075659,0.13622480724926964,9.323854279723948e-05,1.6004804999975022
3.0,-2.0,0.0,-0.01126662710863946,0.13642435218384125,0.00025350835402763864,1.7741624000045704
3.0,-2.0,1.0,-0.011318799205636942,0.13672591136943274,0.0004083829687615667,1.618650999997044
3.0,-2.0,2.0,-0.011394122933892525,0.1371387386714493,0.0005733594171547954,1.5139534000045387
3.0,-2.0,3.0,-0.01149163600134595,0.1376643035217523,0.000744244222626996,1.6373821000015596
4.0,-2.0,-3.0,nan,nan,nan,15.005089099999168
4.0,-2.0,-2.0,-0.019463990821882327,0.1788884497051174,3.740614910293313e-05,1.6109392999933334
4.0,-2.0,-1.0,nan,nan,nan,15.006712400005199
4.0,-2.0,0.0,-0.01959400925585031,0.17948085587888463,0.0005911330304809133,1.500353700001142
4.0,-2.0,1.0,-0.019713445739308,0.17998780739461448,0.0008787408251090864,1.5480555999965873
4.0,-2.0,2.0,-0.01987039672132096,0.1806402508653681,0.0011743276724484365,1.5413750000006985
4.0,-2.0,3.0,-0.0200674859596478,0.18144410755857543,0.0014800435067819635,1.5655551999952877
5.0,-2.0,-3.0,-0.029474779646977867,0.21948375824297234,-0.00014833120029517956,1.6506036999926437
5.0,-2.0,-2.0,-0.029531895557075805,0.2197193534184229,0.0002782461510982872,1.566938799995114
5.0,-2.0,-1.0,-0.029638716587607528,0.22011906101167616,0.000701527016773828,1.6820530999975745
5.0,-2.0,0.0,-0.0298018540839754,0.22068913008008262,0.0011349290529614649,1.5017320000042673
5.0,-2.0,1.0,-0.03002136758877305,0.2214359023074342,0.0015812132300666941,1.5425711999996565
5.0,-2.0,2.0,-0.030299264193621056,0.2223648784702115,0.0020403662677581907,1.6223828999936813
5.0,-2.0,3.0,-0.03064270202494157,0.22348959397862728,0.0025252933190949454,1.8003752999939024
6.0,-2.0,-3.0,-0.04099272299363188,0.2579915524503116,8.062654386233343e-05,1.511361400000169
6.0,-2.0,-2.0,nan,nan,nan,15.01549389999127
6.0,-2.0,-1.0,-0.04131584293927293,0.2590103969749511,0.001293831029922226,1.5599906999996165
6.0,-2.0,0.0,-0.041592208396424635,0.25982003457518005,0.001916817764762298,1.6803015000041341
6.0,-2.0,1.0,-0.041951265496640966,0.26084152740181776,0.002562154581966439,1.5454290000052424
6.0,-2.0,2.0,-0.0423969498714023,0.26208459578433857,0.0032329834369933886,1.5228937000065343
6.0,-2.0,3.0,-0.04293572389480693,0.26356357919981666,0.003936858650873511,1.5050491000001784
7.0,-2.0,-3.0,-0.053702819377880684,0.29421819373567676,0.0004918391674003262,1.5041360000032
7.0,-2.0,-2.0,-0.05391030301802624,0.2948210940500573,0.001264022221455485,1.6630625000107102
7.0,-2.0,-1.0,-0.054245911803267655,0.29567224661220853,0.0021232940893475003,1.5558321999997133
7.0,-2.0,0.0,-0.05467472625004177,0.2967486385360385,0.002973918363805554,1.5349314999912167
7.0,-2.0,1.0,-0.0552131332851622,0.29806865889591716,0.0038497267318879985,1.5690929999982473
7.0,-2.0,2.0,-0.05587334922204934,0.29965121980392395,0.004770515573839241,1.6142740000068443
7.0,-2.0,3.0,-0.05666357817267431,0.3015140044169306,0.005742033615918868,1.6388226999988547
8.0,-2.0,-3.0,-0.06732730768369044,0.32813741892493814,0.001107057963187502,1.5392457999987528
8.0,-2.0,-2.0,-0.06767208704687233,0.3289728918663549,0.0021392431966858333,1.6555977999960305
8.0,-2.0,-1.0,-0.06815508145462501,0.33006510413381684,0.0032115365721756767,1.5363932000036584
8.0,-2.0,0.0,-0.06877185166262334,0.33142369566408514,0.004314175312799828,1.5389450000075158
8.0,-2.0,1.0,-0.06953362245253292,0.33306729491643605,0.0054659282307990085,1.492640600001323
8.0,-2.0,2.0,-0.07045819635393258,0.335010948994196,0.006680488436386258,1.5664454999932786
8.0,-2.0,3.0,-0.07155666313571118,0.33728317371525973,0.007971642435705677,1.6028587000037078
9.0,-2.0,-3.0,-0.0816112661354842,0.3597857738138136,0.001925341185628269,1.5375731000094675
9.0,-2.0,-2.0,-0.08212024396835382,0.3608596490033807,0.0032269039913930177,1.4009042999969097
9.0,-2.0,-1.0,-0.08279420723106745,0.3622199839108342,0.004574288314226984,1.470463199992082
9.0,-2.0,0.0,-0.083638492314693,0.3638771167289037,0.005966898239672102,1.509933400011505
9.0,-2.0,1.0,-0.08467149738139601,0.36585742425503914,0.00743557726949024,1.3251438000006601
9.0,-2.0,2.0,-0.08590779849214458,0.3681773569008058,0.0089828196240845,1.5387273999949684
9.0,-2.0,3.0,-0.08737263538092632,0.37088438187136896,0.01065069608070191,1.4433195000019623
10.0,-2.0,-3.0,nan,nan,nan,15.014222500001779
10.0,-2.0,-2.0,-0.09705355910416502,0.3905759777300279,0.0045729444843596945,1.8736022999946726
10.0,-2.0,-1.0,-0.09795322312962074,0.39221248191424807,0.006223900357998557,1.834991199997603
10.0,-2.0,0.0,-0.0990660084775683,0.3941799590472276,0.007946892846469298,1.9009714999992866
10.0,-2.0,1.0,-0.1004096290674954,0.3965029557928349,0.009760227108797682,1.796347199997399
10.0,-2.0,2.0,-0.10201362987475238,0.39922500757602564,0.011707484457392689,1.8342537999997148
10.0,-2.0,3.0,-0.10390784088507388,0.4023757314768732,0.013801776047855104,1.8665111000009347
12.0,-2.0,-3.0,-0.1265458598136442,0.44211790051252986,0.005823416980703742,1.7094138000102248
12.0,-2.0,-2.0,-0.12770967115028653,0.4439529644244596,0.008062150570339502,1.7522751000069547
12.0,-2.0,-1.0,-0.1291633201528366,0.44615872861271655,0.01041939934791179,2.0988031000015326
12.0,-2.0,0.0,-0.1309206490246917,0.44876181699717554,0.012898851229886203,1.9273422000114806
12.0,-2.0,1.0,-0.13302023714019917,0.45180279672070284,0.015546201223118498,2.0439789000083692
12.0,-2.0,2.0,-0.13551411431131644,0.4553308157441765,0.01841477167853603,1.783458799996879
12.0,-2.0,3.0,-0.1384624423435009,0.4594237463235963,0.02156978833017157,1.6199529999867082
14.0,-2.0,-3.0,-0.15687683200281954,0.48778770900852764,0.009640561610637326,1.926473100000294
14.0,-2.0,-2.0,-0.1586128151940417,0.490138780686939,0.012627742838529287,1.8323355999891646
14.0,-2.0,-1.0,-0.16074607817493325,0.4929241522422861,0.015823930612991952,1.8443425000004936
14.0,-2.0,0.0,-0.1632952880808929,0.49616868732364006,0.01921153281332185,2.1446649999998044
14.0,-2.0,1.0,-0.16633028306557596,0.49994104367436143,0.022883321045053376,1.8711923000082606
14.0,-2.0,2.0,-0.16993120625526936,0.5043142472237203,0.026917730709068367,1.9398365999950329
14.0,-2.0,3.0,-0.17421150185644518,0.5093849113985924,0.031421808579213326,1.8022307000064757
16.0,-2.0,-3.0,-0.18673041205054497,0.5273502719334395,0.01443374417057892,1.639242600009311
16.0,-2.0,-2.0,-0.18913616816159062,0.530206949497949,0.018271665913997384,1.6753717999963555
16.0,-2.0,-1.0,-0.1920614729235719,0.5335493624510514,0.022419146361003558,1.8283683999907225
16.0,-2.0,0.0,-0.19554462309732945,0.5374390115019247,0.026888824768350406,1.8819420999934664
16.0,-2.0,1.0,-0.19968693735362886,0.541941620535074,0.03178556759760871,1.8990901999932248
16.0,-2.0,2.0,-0.20461939952601094,0.5471590854440397,0.03723809805760611,1.7730265999998664
16.0,-2.0,3.0,-0.21054281660745955,0.5532578998512194,0.04347223427707875,1.8005363999982364
18.0,-2.0,-3.0,-0.21576257719988634,0.5617886268213945,0.02017994873703955,1.7309297000028891
18.0,-2.0,-2.0,-0.21892504900476384,0.5651261463528052,0.024968247630769998,1.572897300007753
18.0,-2.0,-1.0,-0.22274926888117075,0.5690157843060912,0.030210895966561388,1.6265896999975666
18.0,-2.0,0.0,-0.22729034455645547,0.5735123783491466,0.035903953332677,1.6329200000036508
18.0,-2.0,1.0,-0.23271473276458088,0.5787456870943231,0.04227565941721462,1.6157439999951748
18.0,-2.0,2.0,nan,nan,nan,15.011915800001589
18.0,-2.0,3.0,nan,nan,nan,15.01908729999559
20.0,-2.0,-3.0,-0.24379397365391098,0.59192124617309,0.026810599636207313,1.8100343999976758
20.0,-2.0,-2.0,-0.24779076253749555,0.595712807661925,0.03266082659388498,1.7712256999948295
20.0,-2.0,-1.0,-0.2525985051760644,0.600108638819278,0.03910808137585254,2.633704599997145
20.0,-2.0,0.0,-0.25831847789234264,0.6051871050052098,0.04620864844241118,2.073570499997004
20.0,-2.0,1.0,nan,nan,nan,15.008421699996688
20.0,-2.0,2.0,nan,nan,nan,15.008242800002336
20.0,-2.0,3.0,nan,nan,nan,15.021963300008792
0.0,-1.0,-3.0,0.0,-8.168404570756917e-19,-9.955331076600282e-19,1.7761739999987185
0.0,-1.0,-2.0,0.0,-1.836046802192491e-16,-2.548976515332715e-16,1.7280977999907918
0.0,-1.0,-1.0,0.0,-8.696672384548528e-16,-1.4038048109793986e-15,1.6731875999976182
0.0,-1.0,0.0,0.0,-1.9092224606983534e-18,-3.658001217016758e-18,1.6219897999981185
0.0,-1.0,1.0,0.0,6.186025255641314e-16,9.993046169621117e-16,1.6934521999937715
0.0,-1.0,2.0,0.0,8.619350434165146e-17,1.1874540384397902e-16,1.7123639000055846
0.0,-1.0,3.0,0.0,-2.1815535148324416e-18,-2.6139155711416217e-18,1.7090345999895362
0.5,-1.0,-3.0,-0.00029030074011160423,0.021972451266903743,-1.0664116310784756e-05,2.50265420001233
0.5,-1.0,-2.0,-0.00028928108340375847,0.02193951864329237,-6.683184589255808e-06,2.3357573000103002
0.5,-1.0,-1.0,-0.0002879433122802144,0.021920878876937264,-5.5584251449483455e-06,1.7809279000066454
0.5,-1.0,0.0,-0.00028736346699642645,0.021918393284067923,-3.248651910573214e-06,1.52018059999682
0.5,-1.0,1.0,-0.00028900077953863956,0.021934223631697447,4.570783236225252e-06,4.701160799988429
0.5,-1.0,2.0,-0.00028995656666153113,0.021963858568938177,8.755426474404511e-06,2.3886754999984987
0.5,-1.0,3.0,-0.0002913206266835777,0.02200928964125791,1.2772126319265578e-05,2.951618100007181
1.0,-1.0,-3.0,-0.0011562015996091635,0.04384916998832417,-3.748874545374845e-05,1.6762249000021257
1.0,-1.0,-2.0,-0.0011527393077295223,0.043796099128913704,-2.100847819826219e-05,1.4697136000031605
1.0,-1.0,-1.0,-0.0011512332703218497,0.043771765236341034,-9.437113103124881e-06,1.5452059999952326
1.0,-1.0,0.0,-0.001151467588735633,0.04378312425187884,1.1067326605293406e-05,1.5388671999971848
1.0,-1.0,1.0,-0.0011538803952386711,0.04382035177576936,2.1807382069756878e-05,1.5174630000110483
1.0,-1.0,2.0,-0.0011581374380980058,0.04389185444203228,3.8160214106649796e-05,1.4603861999930814
1.0,-1.0,3.0,-0.0011641466390300836,0.04399517553163153,5.4363042654653045e-05,1.5584245000063675
2.0,-1.0,-3.0,-0.00456939187451777,0.08708106492147286,-0.00012395503977288673,1.5404266999976244
2.0,-1.0,-2.0,-0.004562028311450028,0.08702412174319951,-5.915104112261698e-05,1.6455446000036318
2.0,-1.0,-1.0,-0.004561631404816802,0.08702740495441894,2.4336792879248567e-06,1.5484847000043374
2.0,-1.0,0.0,-0.004567819842450027,0.08709186830914456,6.304375359324365e-05,1.67168899999524
2.0,-1.0,1.0,-0.0045819823086105105,0.08722099840329414,0.00012916904174846221,1.5256098999961978
2.0,-1.0,2.0,-0.004604973339927376,0.08740965992978122,0.00018999438870037253,1.531020800000988
2.0,-1.0,3.0,-0.004635229746238423,0.087665036082954,0.00025541003238584295,1.5182107000000542
3.0,-1.0,-3.0,nan,nan,nan,15.003167499991832
3.0,-1.0,-2.0,-0.01009621047266207,0.12925249104256661,-6.577109910242958e-05,1.5552314999949886
3.0,-1.0,-1.0,-0.01010537777806253,0.12932904371091475,7.596489404955541e-05,1.6148308999981964
3.0,-1.0,0.0,-0.010131535261116431,0.1294941862079248,0.00021296366474675855,1.6399399000074482
3.0,-1.0,1.0,-0.010174333880792585,0.1297521289465422,0.0003512515145924986,1.5796925000031479
3.0,-1.0,2.0,-0.01023598331135811,0.13010712796532237,0.0004963925691390293,1.6035852000059094
3.0,-1.0,3.0,-0.010316035888009445,0.13056087700469066,0.000646008924598952,1.5867395000095712
4.0,-1.0,-3.0,-0.017553506689749976,0.17005012935813818,-0.00023278299237195589,1.6301445999997668
4.0,-1.0,-2.0,-0.01756118215309166,0.17011772896219596,1.2337144085815416e-05,1.443722899988643
4.0,-1.0,-1.0,-0.017597685609113123,0.17030360533781497,0.0002552156077750412,1.6186713999923086
4.0,-1.0,0.0,-0.017663176164318006,0.1706105280059942,0.0004999469934714848,1.4928501000104006
4.0,-1.0,1.0,-0.01776039513480565,0.17104352490530908,0.00075402360704956,1.5417719000106445
4.0,-1.0,2.0,-0.01788872069284264,0.1716039712663555,0.0010134824674544163,1.4542565000010654
4.0,-1.0,3.0,-0.018050485289777818,0.17229710954485744,0.001281108073000116,1.5910066000069492
5.0,-1.0,-3.0,-0.026685130149115555,0.20913618056766645,-0.00017531126652828917,1.5234886999969603
5.0,-1.0,-2.0,-0.026725564782930755,0.2093246387147561,0.00020452545803110894,1.5023932000040077
5.0,-1.0,-1.0,nan,nan,nan,15.008023399990634
5.0,-1.0,0.0,-0.026942119565836364,0.21014014696115366,0.000963143743331229,1.5672482999943895
5.0,-1.0,1.0,-0.027119094725262194,0.2107774410317826,0.0013521049287876464,1.6266432999982499
5.0,-1.0,2.0,-0.027348021162242553,0.21157813115041366,0.0017596084711116982,1.6265248999989126
5.0,-1.0,3.0,-0.02762975014794744,0.21254816037364876,0.002183952380816606,1.4925832000008086
6.0,-1.0,-3.0,-0.037242347834690825,0.24632846361273725,5.600140936864283e-06,1.4995079999935115
6.0,-1.0,-2.0,-0.037337139044437695,0.24666587664321168,0.0005414660539837023,1.5309444000013173
6.0,-1.0,-1.0,-0.03749469222311752,0.2471749997361214,0.0010777214033803393,1.5967662000039127
6.0,-1.0,0.0,-0.03771938574068456,0.24786572149248326,0.0016307024585803923,1.5121015999902738
6.0,-1.0,1.0,-0.038012425694207375,0.2487421397070647,0.0021989355318600082,1.5373594999982743
6.0,-1.0,2.0,-0.03837764106206765,0.24981291951025003,0.0027875405184963585,1.5552809999935562
6.0,-1.0,3.0,-0.03881900062771226,0.2510938114794529,0.003408073303820235,1.4487297999876318
7.0,-1.0,-3.0,-0.04896555547466819,0.28150891476549394,0.00033674459462274973,1.5262628000054974
7.0,-1.0,-2.0,-0.04914033139155238,0.28202126260590044,0.0010574584199654347,2.8583429000136675
7.0,-1.0,-1.0,-0.049399463923086584,0.28273418972952513,0.00178776901933981,1.5585194999875966
7.0,-1.0,0.0,-0.04974763505850077,0.2836548645573316,0.0025366205862219476,1.6833728999918094
7.0,-1.0,1.0,-0.050188317078211586,0.2847908130900958,0.0033070302109990154,1.5146105000021635
7.0,-1.0,2.0,-0.0507304854337548,0.2861569036829624,0.004114292708950357,1.5043246999994153
7.0,-1.0,3.0,-0.051379288700256986,0.2877665185850762,0.00496091200518503,1.464825600007316
8.0,-1.0,-3.0,-0.061611715487248864,0.31463044178427413,0.0008433175422326337,1.5860413999907905
8.0,-1.0,-2.0,-0.061890663395563816,0.31533833979250414,0.0017726543301939397,4.4398675999982515
8.0,-1.0,-1.0,-0.06227973159328726,0.3162731202414084,0.0027213617927134954,1.6557808000070509
8.0,-1.0,0.0,-0.0627842961221673,0.3174423176774807,0.003695910325554468,1.7362109000096098
8.0,-1.0,1.0,-0.06341214783343663,0.31885816893582614,0.004706935470659592,1.5827277999924263
8.0,-1.0,2.0,-0.06417085933515099,0.32053961642677,0.0057675212663361956,1.6179541000019526
8.0,-1.0,3.0,-0.06507473314163392,0.3225039445275565,0.006889207223656466,1.5997471999871777
9.0,-1.0,-3.0,-0.0749569206168097,0.34570324253952295,0.001540012156104531,1.8399530999886338
9.0,-1.0,-2.0,-0.07535887463973556,0.3466119614411989,0.0026748163425758947,1.5906109000061406
9.0,-1.0,-1.0,-0.07591653907089735,0.34778580622762034,0.003887660672597692,1.661644099993282
9.0,-1.0,0.0,-0.07661031456947098,0.3492171415654386,0.005116844791351521,1.6170626000093762
9.0,-1.0,1.0,-0.07746175526289467,0.35093179639793803,0.006407001000202148,1.5218793999956688
9.0,-1.0,2.0,-0.07848107828248319,0.3529428467371132,0.007758839887551565,1.5826519999973243
9.0,-1.0,3.0,-0.07968978025493045,0.35529101405386665,0.009213808628885947,1.4631067000009352
10.0,-1.0,-3.0,nan,nan,nan,15.003563899997971
10.0,-1.0,-2.0,-0.0893725573062969,0.3759108345019758,0.003841180902360318,1.9712197999906493
10.0,-1.0,-1.0,-0.09011657190545208,0.37732776987467154,0.005316436023995248,1.8864945999957854
10.0,-1.0,0.0,-0.09103367036863808,0.37903292712733944,0.006833108064167162,1.9146818000008352
10.0,-1.0,1.0,-0.09214421496246139,0.38105044169431057,0.008424173760300706,2.2777961999963736
10.0,-1.0,2.0,-0.09346849470425767,0.3834123217827856,0.010119227954874459,2.0052232000016375
10.0,-1.0,3.0,-0.09503006571094796,0.386144133539223,0.011932730486042313,1.9184966999891913
12.0,-1.0,-3.0,-0.11739481132366825,0.4272910709530158,0.004877976895470381,2.676388899999438
12.0,-1.0,-2.0,-0.11835434698772507,0.4288842675534138,0.006866180995788389,1.7267964999919059
12.0,-1.0,-1.0,-0.11956347159613623,0.43080865535208557,0.008960528538727877,1.7774007999978494
12.0,-1.0,0.0,-0.1210242556370199,0.43308077867297623,0.011143796174435658,1.8201238000037847
12.0,-1.0,1.0,-0.12276998380060267,0.43573400319396355,0.013461819137514947,1.7894760000053793
12.0,-1.0,2.0,-0.1248360749227233,0.4388100333055894,0.015953909742735226,1.7751773000054527
12.0,-1.0,3.0,-0.12726702935080114,0.44236022145071807,0.018663889140734857,1.8330226999969454
14.0,-1.0,-3.0,-0.1463749248015449,0.47301626413381964,0.008211989542335192,1.9464855999976862
14.0,-1.0,-2.0,-0.1478199961590252,0.47507213262591974,0.010855637324876401,1.8259580000012647
14.0,-1.0,-1.0,-0.14960727878213786,0.47751768350517443,0.01368920581853875,1.9262241999967955
14.0,-1.0,0.0,-0.15173926981578312,0.4803685519215063,0.016670411955235456,1.9362287000112701
14.0,-1.0,1.0,-0.15426109415555445,0.48363686949776147,0.01982460506315238,1.9100678999966476
14.0,-1.0,2.0,-0.15725832609877188,0.4874868116400047,0.023351793107224676,1.937916100010625
14.0,-1.0,3.0,-0.16078289381155464,0.4918909207048886,0.02719510327553891,1.9232223000144586
16.0,-1.0,-3.0,-0.17510154093230512,0.5128699738481945,0.012427401533597816,1.5897041999996873
16.0,-1.0,-2.0,-0.17711954004230335,0.5153874463511916,0.01582036102761462,1.9152565999975195
16.0,-1.0,-1.0,-0.17958760435079846,0.5183445037740868,0.019500979593492826,1.5870219000062207
16.0,-1.0,0.0,-0.1825114826046228,0.5217696823936758,0.023414266131430765,1.731910999995307
16.0,-1.0,1.0,-0.18597234415665032,0.5257229880703055,0.027660830271061518,1.7804332000087015
16.0,-1.0,2.0,-0.1900661381476716,0.530286714311902,0.032344015180369695,1.597477000002982
16.0,-1.0,3.0,-0.19493138838032154,0.5355880513175864,0.03763141083129305,1.5807061999948928
18.0,-1.0,-3.0,-0.20319041316467668,0.547726138927967,0.01750883616727021,1.6330366000038339
18.0,-1.0,-2.0,-0.20585579127702358,0.5506763424739727,0.021720820010117207,1.8973703000083333
18.0,-1.0,-1.0,-0.2091033245961762,0.5541467085339519,0.026387423305923578,1.865805100009311
18.0,-1.0,0.0,-0.2129293626457247,0.5581263038246617,0.031364642047781104,1.9587498000037158
18.0,-1.0,1.0,-0.21746224323261032,0.5627168025483444,0.03683636733448635,1.8852364999911515
18.0,-1.0,2.0,nan,nan,nan,15.01062169999932
18.0,-1.0,3.0,nan,nan,nan,15.00831289999769
20.0,-1.0,-3.0,-0.2304295815485915,0.5783539708279433,0.02342582941549565,2.063917399995262
20.0,-1.0,-2.0,-0.2338197636370808,0.5817364331431193,0.02858265227174834,1.9441723999916576
20.0,-1.0,-1.0,-0.2379160986035349,0.5856612578070566,0.034293110197082324,1.8597185000107856
20.0,-1.0,0.0,-0.24274553160011614,0.5901702545194487,0.04047595327855021,1.8406114999961574
20.0,-1.0,1.0,nan,nan,nan,15.016019999995478
20.0,-1.0,2.0,nan,nan,nan,15.01231709998683
20.0,-1.0,3.0,nan,nan,nan,15.011658100003842
0.0,0.0,-3.0,0.0,-6.200151073237463e-16,-8.13937306019105e-16,1.6750845000060508
0.0,0.0,-2.0,0.0,-1.255456126832286e-15,-1.8303969073129446e-15,1.818474600004265
0.0,0.0,-1.0,0.0,-3.3095517100644126e-16,-5.57647109951654e-16,1.5579448000062257
0.0,0.0,0.0,0.0,0.0,0.0,1.8075344000098994
0.0,0.0,1.0,0.0,1.7958509003874128e-16,2.96569313227256e-16,1.6959295999986352
0.0,0.0,2.0,0.0,5.6267943742202e-16,8.27479633475894e-16,1.6806634999957168
0.0,0.0,3.0,0.0,-6.3076145465435146e-18,-8.20229048275349e-18,1.7459046000003582
0.5,0.0,-3.0,-0.00026162121350048473,0.020871639007432483,-9.514891365124477e-06,2.2134234000113793
0.5,0.0,-2.0,-0.0002607415057823692,0.020842202294797448,-5.950709197344062e-06,2.4265515000006417
0.5,0.0,-1.0,-0.00026030986053104943,0.02082662187284374,-2.589602813249953e-06,2.499320099988836
0.5,0.0,0.0,-0.00025978216219746386,0.02082493677290577,8.827624383130773e-07,1.422638599993661
0.5,0.0,1.0,-0.0002605962333808165,0.020836990859006872,4.367271175821187e-06,2.462689300009515
0.5,0.0,2.0,-0.0002612963531829493,0.020862888218989118,7.740626143921777e-06,2.4439687999984017
0.5,0.0,3.0,-0.0002624460855789046,0.020902956516874474,1.1303989840820786e-05,2.1789335000066785
1.0,0.0,-3.0,-0.001042442949329092,0.04166203815827929,-3.379563014403353e-05,1.4296122999949148
1.0,0.0,-2.0,nan,nan,nan,15.007857100004912
1.0,0.0,-1.0,-0.0010386375588447017,0.04159250981845309,-6.908974055848567e-06,1.6497625000047265
1.0,0.0,0.0,-0.0010389231057295056,0.041599375841102834,6.894575753891358e-06,1.5733739999996033
1.0,0.0,1.0,nan,nan,nan,15.01067139999941
1.0,0.0,2.0,-0.0010438406982932191,0.04169564302283808,3.3769581270774774e-05,1.544091899995692
1.0,0.0,3.0,-0.001048884226118707,0.0417863646394444,4.81294543370604e-05,1.493536000009044
2.0,0.0,-3.0,-0.004124838034284872,0.08280023291992816,-0.00011329504833830598,1.7607518000004347
2.0,0.0,-2.0,-0.004119243573677656,0.08274443913298962,-5.856649825557526e-05,1.7350691000028746
2.0,0.0,-1.0,-0.004117683496829283,0.08274577922298222,-3.305351257671124e-07,1.6357228999986546
2.0,0.0,0.0,-0.00412395235825147,0.08280156846715123,5.801873706935309e-05,1.6343916000041645
2.0,0.0,1.0,-0.0041340121381741035,0.0829109548329153,0.00011274815273144346,1.5782328000059351
2.0,0.0,2.0,-0.004153365249020102,0.08307464299042612,0.00016618960592713363,1.578387900008238
2.0,0.0,3.0,-0.004178569928543707,0.08329755692028337,0.0002240486628953207,1.819616999986465
3.0,0.0,-3.0,nan,nan,nan,15.005059199989773
3.0,0.0,-2.0,-0.009130264530288423,0.12302864898346635,-6.44305598287961e-05,1.6020335999928648
3.0,0.0,-1.0,-0.009137606387422559,0.12308849346765606,6.08529982501862e-05,1.6175313999992795
3.0,0.0,0.0,-0.009157505255560139,0.12322623658462574,0.00017886540822231717,6.684609600008116
3.0,0.0,1.0,-0.009193406720681363,0.12344897761289167,0.0003040893139656574,1.5470596000086516
3.0,0.0,2.0,-0.009244493406026733,0.12375666434603308,0.000432879530197262,1.5482426999951713
3.0,0.0,3.0,-0.009310911556708934,0.1241513590993423,0.000564846380044389,1.6088719999970635
4.0,0.0,-3.0,-0.015914331697491235,0.16209435992070342,-0.00022243156213439243,1.4899122999922838
4.0,0.0,-2.0,-0.015918415775979855,0.16214033028605362,-6.93545933023064e-06,1.518888100006734
4.0,0.0,-1.0,-0.01594659193852621,0.16229326147552864,0.00020908343208765804,1.6268908999918494
4.0,0.0,0.0,-0.016000043432159883,0.1625545700633913,0.0004283343779710222,1.6297061999939615
4.0,0.0,1.0,-0.016079169563197326,0.16292619549041354,0.0006518098391326721,1.603124300003401
4.0,0.0,2.0,-0.016185171023617495,0.16341116252763352,0.0008811013664115292,1.4872305000026245
4.0,0.0,3.0,-0.01631927971410141,0.16401321090114407,0.001117029654239547,1.4777764000027673
5.0,0.0,-3.0,-0.024261764970886057,0.19966916080363,-0.0001905520059913747,1.4585260000021663
5.0,0.0,-2.0,-0.02429090654219479,0.1998189507435365,0.00014799635733149925,1.507870899993577
5.0,0.0,-1.0,-0.02435872537097583,0.20009968246539742,0.00048759847062034126,1.5157619000092382
5.0,0.0,0.0,-0.024463163782911912,0.20051343040243993,0.0008279353222506662,1.5369201000139583
5.0,0.0,1.0,-0.024609433675288894,0.20105956396900704,0.0011684394865038995,1.4849723999941489
5.0,0.0,2.0,-0.024798502918449206,0.2017529162252028,0.0015285608449049923,1.4790429999993648
5.0,0.0,3.0,-0.025031132292073766,0.20259875522883736,0.001907357187549604,1.4792975000018487
6.0,0.0,-3.0,-0.033960230193798235,0.23559340528469408,-5.118203132754642e-05,1.4968325999943772
6.0,0.0,-2.0,-0.03403359730152489,0.2358713569575056,0.00042870776639432275,1.48556460000691
6.0,0.0,-1.0,-0.03414265656702842,0.23628656883970678,0.0008591582604853918,14.03163690000656
6.0,0.0,0.0,-0.034343402735011797,0.2368937992329473,0.0013967534811586129,1.481450400009635
6.0,0.0,1.0,-0.034584842344298705,0.2376506738768001,0.001900558908001207,1.4749863000033656
6.0,0.0,2.0,-0.03488687640455701,0.2385790872787982,0.00242049097844616,1.5671331000048667
6.0,0.0,3.0,-0.035252433699439645,0.23969012392765476,0.002963730697129706,1.485103099999833
7.0,0.0,-3.0,-0.04479335849264121,0.2697415302322544,0.00022025184057695855,1.6158737000077963
7.0,0.0,-2.0,-0.04493040061254017,0.27016942565758284,0.0008608131786020721,1.5266165000066394
7.0,0.0,-1.0,-0.04513985941152132,0.2707768406383666,0.0015099635034777539,1.5404282000090461
7.0,0.0,0.0,-0.04542665991158068,0.27157036809695273,0.0021780936448185257,1.4846278000040911
7.0,0.0,1.0,-0.04579047768017841,0.2725538123242393,0.002860278406281136,1.5332862000068417
7.0,0.0,2.0,-0.046239615826985214,0.27374032708729606,0.0035728177512035445,1.6138663999881828
7.0,0.0,3.0,-0.04677687594158697,0.27514048119303447,0.004316149397321475,1.6447900999919511
8.0,0.0,-3.0,-0.05654433943289794,0.3020496568463549,0.0006389987974822003,1.6018884999939473
8.0,0.0,-2.0,-0.05676907963338773,0.3026500585148372,0.0014720857668626278,1.5310267000022577
8.0,0.0,-1.0,-0.05708564417704509,0.30345125011298546,0.0023139773125704383,1.6343022000073688
8.0,0.0,0.0,-0.05750198183818256,0.30446227341769294,0.003180587306145091,1.5509142000082647
8.0,0.0,1.0,-0.0580220265886362,0.3056917260056286,0.00407578253508158,1.5795796000020346
8.0,0.0,2.0,-0.05865157788277875,0.3071534873249885,0.005008699181035518,1.644023200002266
8.0,0.0,3.0,-0.05940265424450941,0.3088658262501408,0.005996162320800735,1.638619599994854
9.0,0.0,-3.0,-0.06901608986016783,0.33250861805048426,0.0012288628877155506,1.5475421000010101
9.0,0.0,-2.0,nan,nan,nan,15.01130810000177
9.0,0.0,-1.0,-0.06979986675826855,0.33429820521995723,0.0033221627207403277,1.4840100000001257
9.0,0.0,0.0,-0.0703742776281675,0.3355451772783886,0.0044207341751873,1.5982809999986785
9.0,0.0,1.0,-0.07108170731103325,0.33703334838378807,0.0055554564839384625,1.5039075999957277
9.0,0.0,2.0,-0.07192896373922486,0.33878645351055325,0.006744902994411302,1.7252910000097472
9.0,0.0,3.0,-0.07293307366955448,0.3408320947254564,0.008017199320819044,1.515951800000039
10.0,0.0,-3.0,-0.08202899689025467,0.3611408992213202,0.0019906589148749082,1.9248762000061106
10.0,0.0,-2.0,-0.08246229537118444,0.3620995378248988,0.00317142037496633,1.905094799993094
10.0,0.0,-1.0,-0.08310680691403904,0.36334703152869663,0.00456307004285836,2.0959126000088872
10.0,0.0,0.0,-0.08386905329117145,0.36483611882556355,0.0059146158523694335,2.2568299999984447
10.0,0.0,1.0,-0.08479382318870943,0.3665936132703749,0.007315148444556108,2.080535000000964
10.0,0.0,2.0,-0.08589631593301639,0.3686551634196857,0.008802900447423394,1.914057900008629
10.0,0.0,3.0,-0.0871982170965977,0.37104106861819774,0.010393439843122403,1.9368689999973867
12.0,0.0,-3.0,nan,nan,nan,15.00461639999412
12.0,0.0,-2.0,-0.10987796249395032,0.41457389738625317,0.005860859267115522,1.9476511000102619
12.0,0.0,-1.0,-0.11089428768278564,0.4162616141993004,0.007744287505257978,1.7849181000055978
12.0,0.0,0.0,-0.11211666811774368,0.4182535652659055,0.009679718239485258,1.7331921000004513
12.0,0.0,1.0,-0.11357745864505098,0.42058048407575066,0.01172260251539431,1.7764754999952856
12.0,0.0,2.0,-0.11530443034225668,0.4232757618724479,0.013906282716321156,1.9734489999973448
12.0,0.0,3.0,-0.11733056984517631,0.426378838394651,0.016263676271878913,1.813771800007089
14.0,0.0,-3.0,-0.13675552647938127,0.4588498807159144,0.007011121190673172,3.5982782000064617
14.0,0.0,-2.0,-0.1379626480027396,0.4606555868637301,0.00936357274575558,1.8039691999874776
14.0,0.0,-1.0,-0.13947146822573342,0.4628123415917198,0.011898564860306072,1.955820200004382
14.0,0.0,0.0,-0.14126532432844363,0.4653244965240466,0.014536000027745171,1.7496002999978373
14.0,0.0,1.0,-0.1433889681321895,0.46821941387248717,0.017331399667230053,1.9162292000110028
14.0,0.0,2.0,-0.14589394809208267,0.47158346414675245,0.020385278590720382,1.8417774000117788
14.0,0.0,3.0,-0.14882932099051938,0.4754337045474887,0.023702521932096335,1.9676907000102801
16.0,0.0,-3.0,-0.1643763795093004,0.49889744435069894,0.01073169653523435,1.6656084999995073
16.0,0.0,-2.0,-0.16607570620769574,0.5011224862109875,0.013745463437923704,1.614646800007904
16.0,0.0,-1.0,-0.16817117789906266,0.5037463956883297,0.01703477463808399,1.6252393999893684
16.0,0.0,0.0,-0.17064255135253092,0.5067776040844417,0.020489754797697133,1.6305320999963442
16.0,0.0,1.0,-0.1735596297678519,0.5102698000229267,0.024212904663672284,1.7538810999976704
16.0,0.0,2.0,-0.1769899663090171,0.5142844604005692,0.028275164838852736,1.6467689999990398
16.0,0.0,3.0,-0.18102565213387578,0.5188903470984285,0.03275614549193229,1.7407523000001675
18.0,0.0,-3.0,-0.19153684375919566,0.5340959928503344,0.015245098606343117,2.010429199988721
18.0,0.0,-2.0,-0.19379657603013412,0.5367272418160354,0.01899056427972185,1.808105499992962
18.0,0.0,-1.0,-0.19656538885328123,0.539813251132571,0.023145067883144358,1.9098742000060156
18.0,0.0,0.0,-0.19981265242607482,0.5433518837251159,0.027535959497688365,2.034310799994273
18.0,0.0,1.0,-0.2036380834687539,0.5474146862504305,0.03230779334814704,1.9021540000103414
18.0,0.0,2.0,-0.20815074572205539,0.5520919561441044,0.03759115620022178,1.9540533999970648
18.0,0.0,3.0,nan,nan,nan,15.015065899991896
20.0,0.0,-3.0,-0.21798598168023842,0.5651294935101554,0.02050132833405902,1.7873583000036888
20.0,0.0,-2.0,-0.2208772995945314,0.568174070651783,0.025096252967093072,1.946796699994593
20.0,0.0,-1.0,-0.22439007834444735,0.5716893643781453,0.03019410549438116,1.7874076000007335
20.0,0.0,0.0,-0.22850171574601164,0.5757158125663737,0.035641574012292086,1.7242116999987047
20.0,0.0,1.0,nan,nan,nan,15.009984600008465
20.0,0.0,2.0,nan,nan,nan,15.011946200000239
20.0,0.0,3.0,nan,nan,nan,15.01753510000708
0.0,1.0,-3.0,0.0,-4.7059990823197003e-17,-6.358574005229666e-17,1.6351275000051828
0.0,1.0,-2.0,0.0,-2.4422448370746158e-15,-3.719366998176729e-15,1.7913906000030693
0.0,1.0,-1.0,0.0,-1.6266391549206008e-17,-2.868410863083808e-17,1.7055701999925077
0.0,1.0,0.0,0.0,-8.352918790221635e-19,-1.739618171108922e-18,1.6305276000057347
0.0,1.0,1.0,0.0,2.6173687103076094e-17,4.594440671563987e-17,1.7540954000141937
0.0,1.0,2.0,0.0,1.1523795222039224e-15,1.7550446306383277e-15,1.7726950000069337
0.0,1.0,3.0,0.0,5.676449226339786e-20,1.6269677955393768e-19,1.7026095000037458
0.5,1.0,-3.0,-0.00023699142247712857,0.019876875795992524,-8.527829112823131e-06,2.6505407999939052
0.5,1.0,-2.0,-0.0002364614728135317,0.019850047783861784,-6.1294647575248905e-06,2.6543328999978257
0.5,1.0,-1.0,-0.00023517554117669093,0.019837519873189068,1.9866521195939676e-08,2.4726081999979215
0.5,1.0,0.0,-0.00023483631678589134,0.01983624090054935,3.973677997987504e-06,1.6975870999885956
0.5,1.0,1.0,-0.00023608460603208314,0.01984522197179104,3.83091925916191e-06,2.4520283000019845
0.5,1.0,2.0,-0.00023668621487860086,0.01986815783979834,6.87663354893973e-06,2.4711871999897994
0.5,1.0,3.0,-0.00023766587732798605,0.019903704062818238,1.0059428891867327e-05,2.6947342999919783
1.0,1.0,-3.0,-0.0009446535225277053,0.039684265547561375,-3.053106349447804e-05,1.42713910000748
1.0,1.0,-2.0,-0.0009426024859817694,0.03963969813141244,-1.938389755000937e-05,1.4336551000014879
1.0,1.0,-1.0,-0.0009407583364653416,0.039621871954462,-4.380098683356607e-06,1.4991626999981236
1.0,1.0,0.0,-0.0009411065826909759,0.039625640758660624,4.57131695566238e-06,1.5636186999909114
1.0,1.0,1.0,-0.0009432072458677165,0.03965646866085105,1.876476241595214e-05,1.5276643999968655
1.0,1.0,2.0,-0.0009456531377989297,0.03971072991354534,2.9992424108143163e-05,1.5799016999953892
1.0,1.0,3.0,-0.0009499441271300091,0.03979090391471479,4.283801694182141e-05,1.3949656000040704
2.0,1.0,-3.0,nan,nan,nan,15.003137099993182
2.0,1.0,-2.0,-0.003736413716012299,0.07886867414953885,-5.285444580283541e-05,1.5558850999950664
2.0,1.0,-1.0,-0.0037354756947967083,0.0788662149893285,-2.1323863711768875e-06,1.524126200005412
2.0,1.0,0.0,-0.0037396897536284834,0.07891245847337555,4.821301079744698e-05,1.568724700002349
2.0,1.0,1.0,-0.0037478827143972993,0.07900740037156195,9.736680517899417e-05,7.912425600006827
2.0,1.0,2.0,-0.0037649286201331122,0.07915113296484166,0.0001462905449377465,1.5850951000029454
2.0,1.0,3.0,-0.003786120435348983,0.07934699433519402,0.0001977685082088468,1.5987057000020286
3.0,1.0,-3.0,-0.008302083608812683,0.11739726002247203,-0.0001699901035877933,1.732278999988921
3.0,1.0,-2.0,-0.00829514723441227,0.1173687979481772,-6.476422490809939e-05,1.564533400000073
3.0,1.0,-1.0,-0.008300101455983144,0.11741594979424264,4.666649940793364e-05,1.5671568000107072
3.0,1.0,0.0,-0.00831802708691276,0.11753454694828189,0.00015637028964142052,1.5889251999906264
3.0,1.0,1.0,-0.008346423496473854,0.1177258056057589,0.000264275252837897,1.5953401000006124
3.0,1.0,2.0,-0.008389416405220507,0.11799458896168377,0.0003799276078172635,1.6371363000071142
3.0,1.0,3.0,-0.008445056037106546,0.11834024586052815,0.0004971056896523845,1.8394919999991544
4.0,1.0,-3.0,-0.014490578391594844,0.15482722810296304,-0.00021464719665060814,1.581566799999564
4.0,1.0,-2.0,-0.01449112335341518,0.15485838858811218,-2.1619470942622712e-05,1.452920700001414
4.0,1.0,-1.0,-0.014514570941185134,0.1549862835267385,0.00017550982198864766,1.4742340999946464
4.0,1.0,0.0,nan,nan,nan,15.014297600006103
4.0,1.0,1.0,-0.014622424949536361,0.15553011710478254,0.0005671723617025871,1.4780106999969576
4.0,1.0,2.0,-0.014710827250899672,0.1559526059639905,0.0007710920796607724,1.5423047999938717
4.0,1.0,3.0,-0.014823021897789723,0.156479010542926,0.000980388482180179,1.5697108000022126
5.0,1.0,-3.0,-0.022143062325317153,0.19098509845583594,-0.0001959125269314968,1.4645127999974648
5.0,1.0,-2.0,-0.022164126402793638,0.1911028319790375,0.0001047838834266089,1.5103912000049604
5.0,1.0,-1.0,-0.022216410213607096,0.19133756479906802,0.00040367596631868754,1.49330899999768
5.0,1.0,0.0,-0.022302825020032335,0.19169357493079558,0.0007101272822130974,1.5931263999955263
5.0,1.0,1.0,-0.022425024563114127,0.1921680374663663,0.001016297546269617,1.4861086000018986
5.0,1.0,2.0,-0.022581546861567325,0.19277649214444886,0.0013430802016377954,1.7293133000057423
5.0,1.0,3.0,-0.022777135155641837,0.19351065907646112,0.0016711278495391388,1.467608699997072
6.0,1.0,-3.0,-0.031077392812876914,0.225694475182637,-8.650459380202271e-05,1.5185417000029702
6.0,1.0,-2.0,-0.031134240584494988,0.22592311857774572,0.00034253461235028986,1.5533886999910465
6.0,1.0,-1.0,-0.031235525331924308,0.22628810906162888,0.0007663538123266381,1.5120173000032082
6.0,1.0,0.0,-0.03138582522564215,0.2267980022178585,0.0012030590735549259,1.5313080999912927
6.0,1.0,1.0,-0.03158679787365215,0.22745585861703732,0.0016532743340777621,1.4852639000018826
6.0,1.0,2.0,-0.03183870246197462,0.22826569951930475,0.0021153201977127363,1.518468899987056
6.0,1.0,3.0,-0.03214419138415736,0.2292358199262419,0.0025945369040306686,1.7676459000067553
7.0,1.0,-3.0,-0.04110495549233817,0.25882986427509225,0.00013137588337188593,1.4331242000043858
7.0,1.0,-2.0,-0.0412133189468179,0.25918889018887,0.0007045547890597262,1.5297525999922073
7.0,1.0,-1.0,nan,nan,nan,15.003871599998092
7.0,1.0,0.0,-0.041621175682253764,0.2603960355814907,0.001881644614584321,1.521385799991549
7.0,1.0,1.0,-0.0419239805493099,0.26125225816498093,0.002489372363674766,1.532264400011627
7.0,1.0,2.0,-0.042299078783039956,0.2622887070823313,0.0031221629517905448,1.4854085999977542
7.0,1.0,3.0,-0.04274992337832917,0.2635151718172062,0.00378388205830164,1.4638249999989057
8.0,1.0,-3.0,-0.052038288183929415,0.2903211420715891,0.00048001827720070686,1.6726985000132117
8.0,1.0,-2.0,-0.05221825623539578,0.29083080729887045,0.0012241300085848263,1.5301537999912398
8.0,1.0,-1.0,-0.05247809948132076,0.2915211726561566,0.001976803955023459,1.5476750000088941
8.0,1.0,0.0,-0.052824730006190146,0.29240022270853666,0.00275313629383129,1.805549600001541
8.0,1.0,1.0,-0.053258782457807685,0.2934734315503005,0.0035505467669723068,1.557349199996679
8.0,1.0,2.0,-0.053785334553653086,0.294751509644504,0.004376767129132345,1.6190347999945516
8.0,1.0,3.0,-0.054414247903417756,0.2962520551134881,0.0052507890819920595,1.5774749999982305
9.0,1.0,-3.0,-0.06370063541428972,0.32014188646537634,0.0009777428241961855,1.478172800008906
9.0,1.0,-2.0,-0.06397293579900598,0.32081308556989957,0.0019081693533745852,1.5857557999988785
9.0,1.0,-1.0,-0.06434571604335393,0.32168674419545784,0.0028563930396969246,1.5170455000043148
9.0,1.0,0.0,-0.06482364478388336,0.32277288559658224,0.003834435563141262,1.6219725999981165
9.0,1.0,1.0,-0.06541569967057681,0.32407552720959826,0.0048450891736167324,1.5697255999984918
9.0,1.0,2.0,-0.0661252673331898,0.32561175964769973,0.0058983640327296616,1.6697122999903513
9.0,1.0,3.0,-0.06696773836999381,0.3274056486284594,0.007022854457801996,1.3820654000010109
10.0,1.0,-3.0,-0.07593134144159852,0.3482970428463421,0.0016325665017128698,1.8334022000053665
10.0,1.0,-2.0,-0.07631468506857553,0.3491431843812277,0.002770575244002464,4.504937700010487
10.0,1.0,-1.0,-0.0768222479975299,0.3502110745688446,0.003935573304541558,1.9920076999987941
10.0,1.0,0.0,-0.07746009697944511,0.3515135600263242,0.005142053369618971,1.9452003000042168
10.0,1.0,1.0,-0.07823566848649066,0.35305555599243144,0.006387772340252416,2.0554494000098202
10.0,1.0,2.0,-0.07916020868046747,0.3548643595425417,0.007702257987724835,2.3066762999951607
10.0,1.0,3.0,-0.08025279259719986,0.35695681211076613,0.00910174873986019,1.8803027999965707
12.0,1.0,-3.0,-0.10156327387705288,0.3997964995008233,0.0035254795531143726,2.071503400002257
12.0,1.0,-2.0,-0.10220852575381967,0.4010007094141469,0.005070768641914972,1.762982500004
12.0,1.0,-1.0,-0.10304969376934237,0.4024796068563514,0.006729430280534727,1.8464471999905072
12.0,1.0,0.0,-0.10407891581232942,0.404229332649767,0.008450212372904492,1.7366815999994287
12.0,1.0,1.0,-0.10530929780536313,0.40627899652190946,0.010261842983536983,1.7997220000106608
12.0,1.0,2.0,-0.10676233619800901,0.40865163098336044,0.012186463762592477,1.75213390000863
12.0,1.0,3.0,-0.10846457532236653,0.41136217521699064,0.014234381227102657,1.9831201000051806
14.0,1.0,-3.0,nan,nan,nan,15.007348400002229
14.0,1.0,-2.0,-0.1289411480337923,0.44686476754318616,0.008085067219197216,1.9758730000030482
14.0,1.0,-1.0,-0.13022998143326125,0.4487773169383046,0.010387012220070362,1.760783799996716
14.0,1.0,0.0,-0.1317512172154246,0.45100134472359177,0.012742063894778454,1.897581099998206
14.0,1.0,1.0,-0.13354797298370635,0.4535669950478157,0.015222143767200807,1.7188574999890989
14.0,1.0,2.0,-0.135659860822836,0.4565306655171171,0.01789829214697128,1.827378400004818
14.0,1.0,3.0,-0.13812851140402027,0.4599206313857117,0.020794857297624317,1.9644755000044825
16.0,1.0,-3.0,-0.1544757154033125,0.4854226776213513,0.00929098605058246,4.0996998000046005
16.0,1.0,-2.0,-0.15590778081105483,0.4873976039798754,0.011974702673621277,1.5199184999946738
16.0,1.0,-1.0,-0.15770058833002754,0.48973314102318677,0.014940379269138153,1.7075566999992589
16.0,1.0,0.0,-0.1598056925805278,0.49242839634541213,0.018020398275004054,1.596465700000408
16.0,1.0,1.0,-0.16227805398490802,0.4955259415393165,0.021302111476741943,1.922653600006015
16.0,1.0,2.0,-0.1651774198674123,0.4990771891424819,0.024860002142742504,1.5361826000007568
16.0,1.0,3.0,-0.16857112560578713,0.5031451431583751,0.028764375152905818,1.6862846000003628
18.0,1.0,-3.0,-0.18072092686491903,0.5208884682600655,0.013314539970381407,1.6840125000016997
18.0,1.0,-2.0,-0.18268304671311708,0.5232544770818714,0.016761830689252813,1.5623091000015847
18.0,1.0,-1.0,-0.185016488460098,0.5259939108707002,0.020380211275826537,1.8861370000086026
18.0,1.0,0.0,-0.1877922159205473,0.5291519069726893,0.02428621664465863,1.911854999998468
18.0,1.0,1.0,-0.19104486919962715,0.5327687693888379,0.028488493912282628,1.9108569999953033
18.0,1.0,2.0,-0.19486304761946793,0.5369259610260403,0.03311640965627202,1.6121649999986403
18.0,1.0,3.0,nan,nan,nan,15.014689499992528
20.0,1.0,-3.0,-0.20639718656602768,0.5522944125213682,0.018033802571765546,2.34280349999608
20.0,1.0,-2.0,-0.2089180752630806,0.5550344056902661,0.022246736611743333,1.82873500000278
20.0,1.0,-1.0,-0.211891811565027,0.5581712569391604,0.026682785960581757,1.7276065000041854
20.0,1.0,0.0,-0.21541325070314987,0.5617614471533153,0.03149018882463238,1.7447017999948002
20.0,1.0,1.0,nan,nan,nan,15.005464100002428
20.0,1.0,2.0,nan,nan,nan,15.013011199989705
20.0,1.0,3.0,nan,nan,nan,15.022089000005508
0.0,2.0,-3.0,0.0,-1.8438717285132102e-18,-1.8823800550955176e-18,1.519632299998193
0.0,2.0,-2.0,0.0,-3.4179897526997826e-14,-5.4272099659027047e-14,1.8109479999984615
0.0,2.0,-1.0,0.0,-8.032318879926816e-19,-1.2703700198838972e-18,1.8299995999987004
0.0,2.0,0.0,0.0,-4.626148687192994e-19,-1.0010770316694351e-18,1.7636154999927385
0.0,2.0,1.0,0.0,1.6555103836745195e-18,2.934340615605168e-18,1.9310258999903454
0.0,2.0,2.0,0.0,1.656594265677524e-14,2.6302610676670028e-14,1.8237508999882266
0.0,2.0,3.0,0.0,2.8699825679147396e-19,4.533867773631814e-19,1.4318548000010196
0.5,2.0,-3.0,-0.00021568341230127075,0.01897354433704191,-7.673387512091752e-06,2.6073424000060186
0.5,2.0,-2.0,-0.00021505770287477688,0.01894964344942798,-4.92506844284189e-06,2.213017199988826
0.5,2.0,-1.0,-0.0002146197846439879,0.018937061982397276,-1.83769562126955e-06,2.52367549999326
0.5,2.0,0.0,-0.00021421578436986444,0.018934609460429887,-7.647828614855145e-07,2.5763281999970786
0.5,2.0,1.0,-0.00021363397328533207,0.018942749943396033,-6.56132864264057e-07,3.3958685000106925
0.5,2.0,2.0,nan,nan,nan,15.007104899996193
0.5,2.0,3.0,-0.00021624067024350602,0.018996685368009577,8.994938463306797e-06,2.4995731999952113
1.0,2.0,-3.0,-0.0008599685475759733,0.03788725902351499,-2.757827969045736e-05,1.5620038999913959
1.0,2.0,-2.0,-0.0008580968721222382,0.03784689122832276,-1.7247482593630747e-05,1.4428277999977581
1.0,2.0,-1.0,-0.0008570192001582377,0.03782930406201442,-5.771674881636126e-06,1.4876167999900645
1.0,2.0,0.0,-0.000856950438009485,0.03783310495150634,4.260728160111602e-06,1.3741609999997308
1.0,2.0,1.0,-0.0008585330131491986,0.03785984636887099,1.6353070145830832e-05,1.495930799996131
1.0,2.0,2.0,-0.0008606533174646547,0.037907989223126604,2.6616316619627757e-05,2.5985766000085277
1.0,2.0,3.0,-0.0008643828474608206,0.03797929776400012,3.830362078874197e-05,1.5756832000042778
2.0,2.0,-3.0,-0.003410212589192385,0.0753865663501835,-9.820151152506242e-05,2.133279000001494
2.0,2.0,-2.0,-0.003404602022897052,0.07533960532903711,-4.907831249002716e-05,1.590050799990422
2.0,2.0,-1.0,-0.0034037849927508468,0.07533502553299731,-3.5402921888973262e-06,1.7594475999940187
2.0,2.0,0.0,-0.003407022914509783,0.07537425012480788,4.173951207778103e-05,1.5903696999885142
2.0,2.0,1.0,-0.0034143733713922764,0.07545792550812677,8.786491550650849e-05,1.6857841000019107
2.0,2.0,2.0,-0.0034284414101490857,0.07558350731158342,0.0001294994382112447,1.5490333999914583
2.0,2.0,3.0,-0.0034464130874818366,0.07575662887764512,0.0001755556861200798,1.411156200003461
3.0,2.0,-3.0,-0.007576343892180981,0.11223206788425011,-0.00016017632437331192,1.703576999992947
3.0,2.0,-2.0,-0.0075682221517887616,0.11220233252926717,-6.469357371200836e-05,1.5074480999901425
3.0,2.0,-1.0,-0.0075727283198303574,0.11224110510071134,3.919713567054671e-05,1.496628499997314
3.0,2.0,0.0,-0.007588263655340932,0.11234269774063294,0.00013838685314102397,1.8065337000007275
3.0,2.0,1.0,-0.007611761482084756,0.11250915447497577,0.00023468526378458727,1.5934725999977672
3.0,2.0,2.0,-0.007647010032490131,0.11274393515568126,0.0003353555477852963,1.7575809999980265
3.0,2.0,3.0,-0.0076940392756761344,0.11304851567403007,0.0004400510476471129,1.6244369000050938
4.0,2.0,-3.0,-0.013246497698901516,0.1481683139014438,-0.00020662207718956664,1.4735896999918623
4.0,2.0,-2.0,-0.013243474368619168,0.1481881106486044,-3.368052974337682e-05,1.5223497000115458
4.0,2.0,-1.0,-0.013262583358058189,0.1482944284227497,0.0001438033977793956,1.5809923999913735
4.0,2.0,0.0,-0.013298464210028893,0.14848665327617977,0.00031981742907116794,1.4640542999986792
4.0,2.0,1.0,-0.013352448165717123,0.1487660926537532,0.0004962499284570678,1.6040267000062158
4.0,2.0,2.0,-0.013426902189316081,0.14913650706140053,0.0006788702530038588,1.518231800000649
4.0,2.0,3.0,-0.013521541528016323,0.14959955750745788,0.0008655986655311488,1.4595124000043143
5.0,2.0,-3.0,-0.020282962321157116,0.1829943004554348,-0.0001978078535141702,1.731317300000228
5.0,2.0,-2.0,-0.0202973867720746,0.18308648775818098,6.973750782701025e-05,1.6658666000002995
5.0,2.0,-1.0,-0.020341001964398586,0.18328675891380675,0.0003433915716138994,1.5160194000054616
5.0,2.0,0.0,nan,nan,nan,15.01048019999871
5.0,2.0,1.0,-0.020512268542962175,0.18400998528040058,0.0008943357520449513,1.5485411999979988
5.0,2.0,2.0,-0.020644955649034902,0.18453950762532725,0.0011804640659967827,1.5993411999952514
5.0,2.0,3.0,-0.020809789077019136,0.18518505334596905,0.0014730425044696188,1.6465908999962267
6.0,2.0,-3.0,-0.02853285656597604,0.21654211432349255,-0.00011704716663183494,1.4649921000091126
6.0,2.0,-2.0,-0.028576206217109767,0.21673216687032165,0.00027042225525608545,1.4692763999919407
6.0,2.0,-1.0,-0.028660381471983798,0.2170453386384378,0.0006558043450965492,1.5924256000143941
6.0,2.0,0.0,-0.02878373589450378,0.21748629121155313,0.0010441283156132552,1.5617608000029577
6.0,2.0,1.0,-0.02895167922802888,0.21806063464254438,0.0014466369337803697,1.6021698000113247
6.0,2.0,2.0,-0.029163432057951244,0.21877100110923345,0.001859505453470505,1.4893920999893453
6.0,2.0,3.0,-0.02942079880112569,0.2196233005516032,0.0022852876972796242,1.5723723999981303
7.0,2.0,-3.0,-0.03783227673798106,0.2486956144911004,6.243254791915285e-05,1.5283343000046443
7.0,2.0,-2.0,-0.037919877764683196,0.24899899470535936,0.0005817079197431279,1.5574506000120891
7.0,2.0,-1.0,-0.03806092102131653,0.24944768184891633,0.001105952811780392,1.6224956000078237
7.0,2.0,0.0,-0.0382558176856459,0.25004307796818553,0.0016340661445209605,1.5687783000030322
7.0,2.0,1.0,-0.03850996048763933,0.25079262999056157,0.0021789793815076104,1.6093680000049062
7.0,2.0,2.0,-0.03882486962671805,0.25170690489250613,0.0027503253796931928,1.571857100003399
7.0,2.0,3.0,-0.0392056523599551,0.252781797340327,0.00333314073920214,1.5401421999995364
8.0,2.0,-3.0,-0.04801868145493482,0.27937523510045914,0.0003537352145938159,1.6522862999991048
8.0,2.0,-2.0,-0.048164241916257566,0.2798100680834916,0.0010236785079527346,1.5474945999885676
8.0,2.0,-1.0,nan,nan,nan,15.010412200004794
8.0,2.0,0.0,-0.04866841836762226,0.28117472467181864,0.002395632934530996,1.5702916000009282
8.0,2.0,1.0,-0.04903344758343586,0.2821162790924673,0.0031102121310676817,1.5663960999954725
8.0,2.0,2.0,-0.04947705705938232,0.2832400253847589,0.0038469293114002613,1.4971013000031235
8.0,2.0,3.0,-0.05000763009133913,0.2845612212700327,0.004624201336894078,1.5447936999989906
9.0,2.0,-3.0,-0.05893407457416622,0.30854503324558524,0.0007759916690371427,1.5059210000035819
9.0,2.0,-2.0,-0.0591568636623343,0.3091255504910372,0.0016187630684851334,1.2920183000096586
9.0,2.0,-1.0,-0.05945660755483373,0.30987949064646725,0.0024447309230113713,1.4565903000038816
9.0,2.0,0.0,-0.05986926286217986,0.31083488204919596,0.0033471331407889603,1.4304299000068568
9.0,2.0,1.0,-0.060366641746567695,0.3119793056630588,0.004248274797959669,1.432089599999017
9.0,2.0,2.0,-0.060965108991563044,0.3133320384375481,0.005186413898268079,1.4254962999984855
9.0,2.0,3.0,-0.061676572523002626,0.3149128900524869,0.0061851420825818175,1.5243000000045868
10.0,2.0,-3.0,-0.07043401359680113,0.3361958987797293,0.001338900995678146,1.7743607000011252
10.0,2.0,-2.0,-0.07076185943859337,0.3369363052847682,0.002394971586791165,1.8467545000021346
10.0,2.0,-1.0,-0.0711723610752063,0.3378612802583474,0.003404857357223885,1.9429128000047058
10.0,2.0,0.0,-0.07171149142316358,0.33900662008789095,0.0044927778395926175,1.7611885999940569
10.0,2.0,1.0,-0.07236616914701122,0.34036548742192846,0.00560695669947096,1.8064228000002913
10.0,2.0,2.0,-0.07314958677607686,0.3419623412127546,0.006782411842661332,1.8026608999934979
10.0,2.0,3.0,-0.07407083929691738,0.3438066658564418,0.008017902444928714,1.8862874000042211
12.0,2.0,-3.0,-0.09466761657576606,0.3870448075923146,0.00292329858987371,1.5406849999999395
12.0,2.0,-2.0,nan,nan,nan,15.018740800005617
12.0,2.0,-1.0,-0.09593658130174132,0.38941300847387483,0.005865449811698266,2.1586192999966443
12.0,2.0,0.0,-0.09681055509742031,0.39095765022939744,0.007410241978880045,1.78760229999898
12.0,2.0,1.0,-0.0978543234573156,0.39277471310242484,0.009033452903047582,2.031380000000354
12.0,2.0,2.0,-0.09908638326301267,0.39487560814503214,0.01074574219308632,1.695969899999909
12.0,2.0,3.0,-0.10052596212994747,0.39727464510543314,0.01255551945149143,1.6173056999978144
14.0,2.0,-3.0,-0.11984702180457518,0.4322862824103587,0.005163220247201495,1.928991099994164
14.0,2.0,-2.0,-0.1207193374784914,0.4337040000270598,0.0071103246509058365,1.8801051000045845
14.0,2.0,-1.0,-0.12178857757934702,0.4353832228624624,0.00910305436242764,1.9480220999976154
14.0,2.0,0.0,-0.12308483778409562,0.43735854682543823,0.011215189633672112,1.869412200001534
14.0,2.0,1.0,-0.12461443982294917,0.43963905286887434,0.01342766091984271,1.9829936000023736
14.0,2.0,2.0,-0.12640898851453453,0.44226576512759924,0.01579594202302937,1.992229800001951
14.0,2.0,3.0,-0.12849986357805343,0.445266786323343,0.018343963030184825,1.704883800004609
16.0,2.0,-3.0,-0.14533110616062306,0.472444887578655,0.008078384294982529,1.875344000000041
16.0,2.0,-2.0,-0.146578490434919,0.4742150484231836,0.010573050398779997,1.7638971999986097
16.0,2.0,-1.0,-0.14807988977259234,0.47628483333174904,0.013154808157308386,1.752229100005934
16.0,2.0,0.0,-0.14987651579924166,0.47866035195531564,0.015872704733720343,1.8302034000080312
16.0,2.0,1.0,-0.15199315145475523,0.4814470018279098,0.018830478553664848,1.7974365000118269
16.0,2.0,2.0,-0.15446132858603057,0.4846049886070108,0.02197278138679192,1.7966145000100369
16.0,2.0,3.0,-0.1573386690580112,0.4882099325986747,0.0253943945463558,1.9137309000070672
18.0,2.0,-3.0,-0.17054275592057233,0.5080453572341914,0.011308831942666547,14.507322499994189
18.0,2.0,-2.0,-0.17235659635796008,0.5102182846912411,0.014773465439204797,1.9188655000034487
18.0,2.0,-1.0,-0.174356196607796,0.5126695527992589,0.018009670807619355,1.6105010000028415
18.0,2.0,0.0,-0.17674171933384908,0.5154978844766724,0.02150614873147403,1.6094880999880843
18.0,2.0,1.0,-0.17952633517719419,0.5187306933299243,0.0252353978294624,1.573039399998379
18.0,2.0,2.0,-0.18277258105341465,0.5223956193876633,0.029241137972283178,1.8046705000015208
18.0,2.0,3.0,nan,nan,nan,15.004577699990477
20.0,2.0,-3.0,-0.19558212816004172,0.5398078202831205,0.015902157605955855,1.934439000004204
20.0,2.0,-2.0,-0.19775728563710748,0.5422704201776434,0.01969774264278946,1.9974395000026561
20.0,2.0,-1.0,-0.20031561299023426,0.5450903768289634,0.023660561893821028,2.094521099992562
20.0,2.0,0.0,-0.20335540117607587,0.5483286147618822,0.027980679034928763,2.0450394000072265
20.0,2.0,1.0,-0.2068997001244588,0.5520357103141561,0.03265682500849496,1.9941442999988794
20.0,2.0,2.0,nan,nan,nan,15.014379500003997
20.0,2.0,3.0,nan,nan,nan,15.014212599999155
0.0,3.0,-3.0,0.0,3.4569835722458844e-18,5.3298901579753065e-18,1.4517144999990705
0.0,3.0,-2.0,0.0,-2.0606739741007192e-14,-3.399881893829135e-14,1.5263494999962859
0.0,3.0,-1.0,0.0,-5.053096159799672e-19,-9.533597142748304e-19,1.4580497999995714
0.0,3.0,0.0,0.0,4.683916386739838e-19,1.0510545137520336e-18,1.512418099999195
0.0,3.0,1.0,0.0,2.5151237981377397e-18,5.021265375932653e-18,1.4264600000024075
0.0,3.0,2.0,0.0,9.98790318444599e-15,1.6478457118690326e-14,1.501167299997178
0.0,3.0,3.0,0.0,-2.566148174469193e-19,-3.695440434724196e-19,1.4541980999929365
0.5,3.0,-3.0,-0.0001971246793776027,0.018149594099139604,-6.924939877443008e-06,2.6232916000008117
0.5,3.0,-2.0,-0.0001965777078951625,0.018127960074974733,-4.442040237837436e-06,2.5507857000047807
0.5,3.0,-1.0,-0.00019622953999776094,0.018116447493495787,-1.788630748321057e-06,2.746944499987876
0.5,3.0,0.0,-0.00019489882376855228,0.018112880990297873,-3.746046558040942e-06,2.5228465999971377
0.5,3.0,1.0,-0.0001961259775362656,0.018122603063559214,2.077313262995502e-06,2.745822099997895
0.5,3.0,2.0,-0.00019689811540735125,0.01814131826974673,5.612852056739653e-06,2.49294870000449
0.5,3.0,3.0,-0.00019759070208968943,0.018169677728579442,8.077914043399797e-06,2.7354218999971636
1.0,3.0,-3.0,-0.0007860428510657602,0.036247536856045995,-2.452341900175662e-05,1.5319278999959351
1.0,3.0,-2.0,-0.0007845304518876439,0.03621050870143207,-1.5660295004989813e-05,1.5157815999991726
1.0,3.0,-1.0,-0.0007823370827424458,0.036196238398432126,-9.427938084769175e-07,1.4397804000036558
1.0,3.0,0.0,-0.000783747428459658,0.036197438304389894,4.459133689330779e-06,1.447310400006245
1.0,3.0,1.0,-0.0007848397284011543,0.03622067541617806,1.4539235808805846e-05,1.521865999995498
1.0,3.0,2.0,-0.0007859655913191599,0.03626262088686585,2.1629808484690212e-05,1.536980599994422
1.0,3.0,3.0,-0.0007898908914725222,0.03632724309889471,3.438222206424113e-05,1.554233499991824
2.0,3.0,-3.0,-0.003120860632965683,0.07215640956882372,-9.331311524515083e-05,1.6030210000026273
2.0,3.0,-2.0,-0.003113637372155642,0.07211612094612468,-4.079462120918849e-05,1.509626400002162
2.0,3.0,-1.0,-0.0031142028200513705,0.07210767493602997,-4.577941720130569e-06,1.435943300006329
2.0,3.0,0.0,-0.0031167451312387184,0.0721412098945817,3.648137857196275e-05,1.4974121999985073
2.0,3.0,1.0,-0.003123608431430336,0.07221554767076374,8.032133585179096e-05,1.4523831000115024
2.0,3.0,2.0,-0.003133424476545299,0.07232878985352277,0.00012133849822911123,1.5851799999945797
2.0,3.0,3.0,-0.003150423320234852,0.07247952527086107,0.0001566330526459583,1.5498446000128752
3.0,3.0,-3.0,-0.006940989155542754,0.1074990697929771,-0.00015096141794105987,1.5629737000126624
3.0,3.0,-2.0,-0.006932061074182094,0.10746824627721563,-6.519777069891882e-05,1.7312862999970093
3.0,3.0,-1.0,-0.006935559868540997,0.10750040436595903,3.180704501900342e-05,1.7736313000059454
3.0,3.0,0.0,-0.006948167947436801,0.10758657018657561,0.00011829483211345926,1.663712100009434
3.0,3.0,1.0,-0.006970215303544913,0.10773501162060475,0.0002118965510349355,7.2522746000031475
3.0,3.0,2.0,-0.00699842518339977,0.10794036052723269,0.00029746072392978877,1.593297999992501
3.0,3.0,3.0,-0.00703852786407444,0.10821027862504262,0.0003916009080964448,1.5840920000046026
4.0,3.0,-3.0,-0.012152865834113458,0.14204906611090823,-0.00019497485870531448,1.537620800008881
4.0,3.0,-2.0,-0.012150080560977772,0.14206121249122647,-3.4727142089660155e-05,1.5423649000003934
4.0,3.0,-1.0,-0.01216421638198062,0.14214788038050497,0.00011973558363123524,1.5322468999947887
4.0,3.0,0.0,-0.012193724652253546,0.14231392345859556,0.0002777278429458081,1.5348320999910356
4.0,3.0,1.0,-0.012238295920844688,0.14255782308634968,0.00043411466652208675,1.571840799995698
4.0,3.0,2.0,-0.012302362049242621,0.142885288205007,0.000600935836749101,1.5499236000032397
4.0,3.0,3.0,-0.012382798597726952,0.1432948646397813,0.0007683988082375995,1.5060401000082493
5.0,3.0,-3.0,-0.018642449742788836,0.17562138289251936,-0.00019800655419401918,1.5224679999955697
5.0,3.0,-2.0,-0.01865299449489566,0.17569513646671645,4.639635924762745e-05,1.5503305999882286
5.0,3.0,-1.0,-0.018687618691903163,0.17586490782275216,0.0002914768285339063,1.6291836999880616
5.0,3.0,0.0,-0.01874785561603831,0.1761325148735065,0.000541381482920567,1.5324746000114828
5.0,3.0,1.0,-0.01883040456715046,0.17649538911115298,0.0007851508390495339,1.5528016000025673
5.0,3.0,2.0,-0.018943300075268787,0.17696231737606694,0.0010432207748212415,1.5109962999995332
5.0,3.0,3.0,-0.019083243610041878,0.17753305953904042,0.0013056302407903756,1.515734300002805
6.0,3.0,-3.0,-0.026277900842652246,0.20806542848231946,-0.00013727535964569673,1.539116500003729
6.0,3.0,-2.0,-0.026310188710324756,0.20822227371821767,0.00020994160421053772,1.498532300000079
6.0,3.0,-1.0,-0.026380284354508676,0.2084917879747595,0.0005602449479809336,1.5026675000117393
6.0,3.0,0.0,nan,nan,nan,15.009196199986036
6.0,3.0,1.0,-0.026624852543154054,0.2093802470985635,0.001272570379203557,1.5233741999982158
6.0,3.0,2.0,-0.026801684313491947,0.21000837052464097,0.001644294829124668,1.5197270999924513
6.0,3.0,3.0,-0.027022599967809202,0.2107596799429448,0.0020242846138084705,1.5791039999894565
7.0,3.0,-3.0,-0.034918473733051014,0.2392681217593558,9.017944792193574e-06,1.4766126000031363
7.0,3.0,-2.0,-0.03498851674121184,0.2395243352644349,0.0004774899799150769,1.5873357999953441
7.0,3.0,-1.0,-0.03510521251731202,0.23991241145371528,0.0009510479736218151,1.4605878000002122
7.0,3.0,0.0,-0.03526801227625387,0.24043242647515428,0.0014256748452113447,1.5730536000046413
7.0,3.0,1.0,-0.035483045419531845,0.24109198125148917,0.0019172393896086802,1.5966575000056764
7.0,3.0,2.0,-0.03575017119748225,0.24189714889840103,0.002427569584652768,1.5329841000057058
7.0,3.0,3.0,-0.03607321487002069,0.2428492738930773,0.002951666637978058,1.5174604000058025
8.0,3.0,-3.0,-0.04442235643798775,0.2691478836139414,0.0002525138103886109,1.5385016000072937
8.0,3.0,-2.0,-0.04454199472989184,0.26952109864925033,0.0008619170620177224,1.511167899996508
8.0,3.0,-1.0,-0.04472009108749053,0.27004036184985514,0.001470997542472907,1.6689974000037182
8.0,3.0,0.0,-0.044963372047771344,0.2707127287604265,0.0020973134856357486,1.529469600005541
8.0,3.0,1.0,-0.045271565410408776,0.2715419384323934,0.002738494737886526,1.6020396999956574
8.0,3.0,2.0,-0.045647740724866326,0.2725353860385764,0.0033998826975233207,1.4992509000003338
8.0,3.0,3.0,-0.04609854889646736,0.27370353615358267,0.004093602674242006,1.5192672999983188
9.0,3.0,-3.0,-0.05464920066826595,0.2976621666389755,0.0006130481655244986,1.4998786999931326
9.0,3.0,-2.0,-0.05483238125189349,0.2981633666768596,0.0013746473499977436,1.48073180000938
9.0,3.0,-1.0,-0.05509178416267613,0.298827990420954,0.002145424411222528,3.2422972999920603
9.0,3.0,0.0,-0.05543095229080941,0.29966188095468793,0.0029326735451158424,1.482479099999182
9.0,3.0,1.0,-0.055852330480842705,0.30067476797056486,0.0037469259599210796,1.4532674000074621
9.0,3.0,2.0,-0.05636074064969887,0.30186913508682534,0.00458353425162081,1.4727245999965817
9.0,3.0,3.0,-0.05696557751572218,0.30326896474297727,0.005475526381855887,1.8264098999934504
10.0,3.0,-3.0,-0.06546665895340165,0.32478976170680984,0.0010930899178987017,1.808555499999784
10.0,3.0,-2.0,-0.06573144293905431,0.32542889250915247,0.002026446752412603,1.7863624999881722
10.0,3.0,-1.0,-0.06608691665544209,0.32625110848644223,0.0029761039953869004,2.053480899994611
10.0,3.0,0.0,-0.06654133010436136,0.3272557369670024,0.003943554451875607,1.8557510000100592
10.0,3.0,1.0,-0.06709741984838502,0.32845819459296954,0.004945285197191087,1.977405900004669
10.0,3.0,2.0,-0.06776383449244894,0.32987283082631325,0.005997754698340015,1.8520623999938834
10.0,3.0,3.0,-0.06854735818593971,0.3315072570955063,0.007098769777744892,1.847360600004322
12.0,3.0,-3.0,-0.08840505643162111,0.3749408509034289,0.0024769300276435806,1.5256717999873217
12.0,3.0,-2.0,-0.08887733211731896,0.3758786641381995,0.003795077185244069,1.5746988999890164
12.0,3.0,-1.0,-0.08947207624802456,0.3770256608692145,0.0051236045944047775,1.5555268000025535
12.0,3.0,0.0,-0.09022088407916207,0.3783985904313915,0.006528284805064506,1.6345664999971632
12.0,3.0,1.0,-0.09111080716913023,0.3800120630865831,0.007984485707964265,1.5412372999999207
12.0,3.0,2.0,-0.09216142178879683,0.38187788430651287,0.009513183275638947,1.5503408999938983
12.0,3.0,3.0,-0.09338844468589458,0.384011317652321,0.01112616367616727,1.5227124000084586
14.0,3.0,-3.0,-0.1124145637535392,0.41985293599975454,0.004450904957744297,1.8721462999965297
14.0,3.0,-2.0,nan,nan,nan,15.016166299988981
14.0,3.0,-1.0,-0.11406418555676523,0.4226011547880439,0.008003821095780815,1.8948349000129383
14.0,3.0,0.0,-0.11517592505044272,0.424360395404228,0.009909152188009276,1.816593700001249
14.0,3.0,1.0,-0.11648526252483427,0.4263956723874279,0.011894991875306371,1.8861841000034474
14.0,3.0,2.0,-0.11801937718188227,0.428734224101759,0.014004185342500397,2.156829400002607
14.0,3.0,3.0,-0.1198061611257395,0.43140422413003754,0.016267659257520096,2.0282375999959186
16.0,3.0,-3.0,-0.1368693915129785,0.45994992874771373,0.007035719935029997,2.0596865999978036
16.0,3.0,-2.0,-0.13793849999977814,0.4615272720910112,0.009295161613763005,1.875099599987152
16.0,3.0,-1.0,-0.13922432160964182,0.4633761441782839,0.011617796819202959,1.8000617000070633
16.0,3.0,0.0,-0.14077335847574646,0.46551296960477817,0.01408343762490583,1.7401113999949303
16.0,3.0,1.0,-0.1425883319414567,0.46799452930897306,0.016714240877232743,1.7240014000126394
16.0,3.0,2.0,-0.14470330330619197,0.47081361990654247,0.019507886129431398,1.7563723999919603
16.0,3.0,3.0,-0.14715891259237013,0.474023785091087,0.02252655193607109,1.9076346999936504
18.0,3.0,-3.0,-0.16131605021280815,0.49571682352744784,0.010210905385328112,7.207821299991338
18.0,3.0,-2.0,-0.16277869064816697,0.49762394969730894,0.01306077462511207,1.8611114000086673
18.0,3.0,-1.0,-0.16449819534393306,0.4998230673593516,0.01596609733185084,1.7827682000061031
18.0,3.0,0.0,-0.16655981896616323,0.5023656058208879,0.019117829352949818,1.8096598999982234
18.0,3.0,1.0,-0.16895676246778746,0.5052628281434386,0.022444176081616647,1.6981599999999162
18.0,3.0,2.0,-0.17174752440525332,0.5085635252511542,0.026034083760701897,1.7649344999954337
18.0,3.0,3.0,-0.17499175931327293,0.5123224656185636,0.029957296500696153,2.0849551999999676
20.0,3.0,-3.0,nan,nan,nan,15.025025099996128
20.0,3.0,-2.0,-0.1873634112628113,0.5298903047381713,0.017492922213313472,2.144817200009129
20.0,3.0,-1.0,-0.1895714248721565,0.5324301558517266,0.02104383462308938,2.1409708999999566
20.0,3.0,0.0,-0.19220789086832135,0.5353514639147268,0.02493588760624215,2.1972661999898264
20.0,3.0,1.0,-0.19526620591836452,0.5386823716477329,0.029096953206882915,2.1009319000004325
20.0,3.0,2.0,nan,nan,nan,15.011537700003828
20.0,3.0,3.0,nan,nan,nan,15.017021799998474
0.0,4.0,-3.0,0.0,2.2618942318447645e-17,3.5142650174557206e-17,1.4631510000035632
0.0,4.0,-2.0,0.0,-3.75334310593623e-15,-6.415213199825069e-15,1.4704802999913227
0.0,4.0,-1.0,0.0,-6.850587277213025e-20,-1.5371023513719437e-19,1.472044599999208
0.0,4.0,0.0,0.0,-4.596190953763577e-19,-1.0675692978090523e-18,1.4969180000043707
0.0,4.0,1.0,0.0,2.523270605826063e-19,4.975208232571099e-19,1.4756655999954091
0.0,4.0,2.0,0.0,1.8169020033847852e-15,3.105715873369938e-15,1.4565556000015931
0.0,4.0,3.0,0.0,2.973128874888173e-17,4.466280823880322e-17,1.4461067000083858
0.5,4.0,-3.0,nan,nan,nan,15.010139699996216
0.5,4.0,-2.0,-0.00017952733828208167,0.0173766351904623,-1.09576705428224e-06,2.4494276999903377
0.5,4.0,-1.0,-0.000179682610133014,0.01736543053491555,-2.7736865400626856e-07,2.5546171000023605
0.5,4.0,0.0,-0.00018007180694723512,0.01736318672450428,4.840783012480054e-07,2.6748598999984097
0.5,4.0,1.0,-0.00018024510158753948,0.017370572762253796,2.736169075247188e-06,2.479194400002598
0.5,4.0,2.0,-0.00018064468986911386,0.017386988949334242,5.018904823204473e-06,2.505419699999038
0.5,4.0,3.0,-0.00018125585497341667,0.017412526491185135,7.2807706745637554e-06,2.3958076999988407
1.0,4.0,-3.0,-0.0007220087876460557,0.03474393070498269,-2.454620760724987e-05,2.6290754999936325
1.0,4.0,-2.0,-0.000718749771238758,0.03471312114414901,-9.753586705040634e-06,1.5888050999928964
1.0,4.0,-1.0,-0.0007192600306491492,0.034695794434151814,-5.177264564803989e-06,1.4886849000031361
1.0,4.0,0.0,-0.0007193320969334227,0.034698448800816656,3.908786290896615e-06,1.471841199992923
1.0,4.0,1.0,-0.0007197113149777223,0.03471833596684656,1.1275326613713874e-05,1.49573509999027
1.0,4.0,2.0,-0.0007221815743589932,0.03475788024507205,2.2573808860785993e-05,1.5908736000128556
1.0,4.0,3.0,-0.0007246340050155453,0.03481453392607001,3.095493250383307e-05,1.5353305999888107
2.0,4.0,-3.0,-0.002865119112242187,0.06919570715347927,-8.240615903151111e-05,1.6019154999958118
2.0,4.0,-2.0,-0.0028604887760136366,0.06915408134279902,-4.2183603205979834e-05,1.568232799996622
2.0,4.0,-1.0,-0.002859923001243825,0.0691468259800315,-5.32721268907191e-06,1.577385199998389
2.0,4.0,0.0,-0.0028620606463805043,0.06917579657787468,3.242203097613054e-05,1.5148251000064192
2.0,4.0,1.0,-0.0028674497415601685,0.06924084836713253,7.072823674679135e-05,1.5383222999953432
2.0,4.0,2.0,-0.002875987627599441,0.06934156668170616,0.0001078241400290667,6.67787290000706
2.0,4.0,3.0,-0.0028893640446268076,0.06947951391297866,0.0001464514080400771,1.6080092000047443
3.0,4.0,-3.0,-0.006380823682328396,0.10314899626975338,-0.00013860366719534368,1.5887766999949235
3.0,4.0,-2.0,-0.006374481330466031,0.10311874505257221,-5.720691164467592e-05,1.5618254000000888
3.0,4.0,-1.0,-0.0063747833770562146,0.10314271920963924,2.5636914691671584e-05,1.6350899999961257
3.0,4.0,0.0,-0.006385718447363242,0.10321669803804587,0.0001028338743765555,1.6343138000083854
3.0,4.0,1.0,-0.006403356947228045,0.10334621545354263,0.00018414028206751074,1.549755300002289
3.0,4.0,2.0,-0.006428498915374892,0.10352964927767738,0.00026473408962258006,1.507985499993083
3.0,4.0,3.0,-0.006463067683098345,0.10377019660129064,0.00035014751005372276,1.547348599997349
4.0,4.0,-3.0,-0.011187594612106944,0.13640645254255324,-0.00018464638923737563,1.508793400003924
4.0,4.0,-2.0,-0.011183539254222774,0.13641239748479506,-3.7629799541756155e-05,1.4781918000080623
4.0,4.0,-1.0,-0.011194897885735244,0.13648362556798044,9.920260406566839e-05,1.5629235999949742
4.0,4.0,0.0,-0.011220168896873828,0.13662863624909943,0.00024405022028526507,1.5501986000017496
4.0,4.0,1.0,-0.011262358629479774,0.13684792148719777,0.0003983132982627037,1.6757764000067255
4.0,4.0,2.0,-0.011312160315698594,0.1371330296086366,0.0005345703492973478,1.4427821999997832
4.0,4.0,3.0,-0.011379114879722652,0.13749515490724168,0.0006800571899216384,1.5764443000080064
5.0,4.0,-3.0,-0.01718862757154127,0.16880266602697913,-0.00019413329737202453,1.5328872999962186
5.0,4.0,-2.0,-0.01719596183526073,0.16886014800043286,2.644727888301646e-05,1.4867975999950431
5.0,4.0,-1.0,-0.01722401678104113,0.16900509624423338,0.00024823172602060254,1.498275999998441
5.0,4.0,0.0,-0.01727351371140795,0.169237582740504,0.0004712133313680082,1.5092786000022897
5.0,4.0,1.0,-0.01734498175493404,0.1695585790546154,0.0006956348500271536,1.630429600001662
5.0,4.0,2.0,-0.01744068717998748,0.16997141059347703,0.0009265188907100582,1.4581724000017857
5.0,4.0,3.0,-0.017560316299747858,0.17047858429817528,0.00116312011113077,1.56739940000989
6.0,4.0,-3.0,-0.024272061299410952,0.20019692923347676,-0.0001510399668026624,1.5295721000002231
6.0,4.0,-2.0,-0.02429813785910384,0.20032836673248552,0.0001679763891683981,1.4555410000029951
6.0,4.0,-1.0,-0.024355027127099138,0.200559803864971,0.0004818734612531957,1.5851013000064995
6.0,4.0,0.0,-0.024442046559053687,0.20089660386347408,0.0008000762310668504,1.6396786000113934
6.0,4.0,1.0,-0.024561143799727403,0.20134048761256074,0.0011244435754725161,1.6241221999953268
6.0,4.0,2.0,-0.0247122553919934,0.2018962084718987,0.0014588734978579036,1.5605964999995194
6.0,4.0,3.0,-0.02490082287331352,0.2025645265780547,0.001802451745710586,1.516469899986987
7.0,4.0,-3.0,-0.03231549482791718,0.23048352005754724,-3.223943203321486e-05,1.5457500999909826
7.0,4.0,-2.0,-0.032372337307163934,0.2307009367554685,0.0003936322261042326,1.4821852999884868
7.0,4.0,-1.0,-0.03246883301239989,0.23103753471640726,0.0008212136695690748,1.5018470999930287
7.0,4.0,0.0,nan,nan,nan,15.01354810000339
7.0,4.0,1.0,-0.03278872992397974,0.23207669916953658,0.0016947153451038186,1.530338099997607
7.0,4.0,2.0,-0.03301697926027258,0.23278961003281212,0.0021536643630724246,1.4585909000015818
7.0,4.0,3.0,-0.033292832364774094,0.23363646212477557,0.0026265791916019105,1.5447633999865502
8.0,4.0,-3.0,-0.04119541577236341,0.25958011378602175,0.00017089226473492405,1.4528422000003047
8.0,4.0,-2.0,-0.041293316826823356,0.25990080854042474,0.0007242622145094573,1.4737779999995837
8.0,4.0,-1.0,-0.04144427422029351,0.26035550290837506,0.001281867699802076,1.4540307999996003
8.0,4.0,0.0,-0.04164590629335885,0.2609443828878001,0.0018369042607974044,1.5952369000006001
8.0,4.0,1.0,-0.04191054704023811,0.2616799558277778,0.002422629955405183,1.4646955000062007
8.0,4.0,2.0,-0.042231501941092486,0.2625618327501872,0.003019069515742599,1.5007857000018703
8.0,4.0,3.0,-0.04261708254636898,0.26359953328049146,0.00364124092513905,1.434936799996649
9.0,4.0,-3.0,-0.050787119235835565,0.2874402250878667,0.00047869083596576,1.5322657999931835
9.0,4.0,-2.0,-0.05093972389027823,0.2878751708565877,0.0011732386366847362,1.3960633000097005
9.0,4.0,-1.0,-0.05115757169827251,0.28845778424306545,0.0018705676766813447,1.4543727999989642
9.0,4.0,0.0,-0.05144493887953561,0.2891936841900644,0.002581956525931766,1.783170099995914
9.0,4.0,1.0,-0.05180421810838265,0.29008979194771,0.003314047272287719,1.4711029000027338
9.0,4.0,2.0,-0.052238343485141114,0.29115255582837185,0.00406969681230118,1.715633700005128
9.0,4.0,3.0,-0.052755712503765206,0.2923976470962256,0.00487044447583718,1.4685070999985328
10.0,4.0,-3.0,-0.06097223288287812,0.3140378951495682,0.0009003725360424828,1.7523835999891162
10.0,4.0,-2.0,-0.06119234944868879,0.3145962235892134,0.0017477504705711677,1.8112870999902952
10.0,4.0,-1.0,nan,nan,nan,15.00838769999973
10.0,4.0,0.0,-0.06188014919040885,0.316205991524648,0.0034785135478351335,1.897249000001466
10.0,4.0,1.0,-0.0623544557334621,0.3172736163986064,0.004381131774397128,1.967730299991672
10.0,4.0,2.0,-0.06292471757182694,0.3185320369239235,0.0053282024660879276,1.6746988000086276
10.0,4.0,3.0,-0.06359518584259916,0.3199866460045842,0.006314361311826224,1.8320358000055421
12.0,4.0,-3.0,-0.0826892041139563,0.363440896444427,0.0021028993576964897,1.6541393999941647
12.0,4.0,-2.0,-0.08308909770307205,0.36426807614628043,0.0033032445419301066,1.4983382999926107
12.0,4.0,-1.0,-0.08360077938793886,0.36528781407046274,0.004522232264356238,3.7528502000059234
12.0,4.0,0.0,-0.0842347379495958,0.36650563669051656,0.00577426485690118,1.5605779999896185
12.0,4.0,1.0,-0.08499763981759778,0.36794369698957374,0.007087241215641433,1.6181297000002814
12.0,4.0,2.0,-0.08589862268524429,0.36960736317154086,0.008459218425037905,1.5138573000003817
12.0,4.0,3.0,-0.0869502081017075,0.3715108921663159,0.009902096485743596,1.5224101999920094
14.0,4.0,-3.0,-0.10557828967267113,0.40795854411463006,0.0038425680479105785,1.8003734999947483
14.0,4.0,-2.0,-0.10620978163380312,0.40907422285501,0.00544393599724944,1.9503827000007732
14.0,4.0,-1.0,-0.10698009355470106,0.4104010028154166,0.007044808951102665,1.9454562999890186
14.0,4.0,0.0,-0.10794481797087419,0.41197781295460556,0.008791320170497729,1.78447210000013
14.0,4.0,1.0,-0.10907119070064053,0.4137981246893163,0.010579357584172843,1.8399563999992097
14.0,4.0,2.0,-0.11038986696999098,0.4158883193313347,0.012468087799566822,1.926158000002033
14.0,4.0,3.0,-0.11192215083573487,0.41827163640978693,0.014481958634765858,1.9083353000023635
16.0,4.0,-3.0,-0.12903866145360843,0.447923559475529,0.0061420025296889825,2.0324662000057288
16.0,4.0,-2.0,nan,nan,nan,15.01678649999667
16.0,4.0,-1.0,-0.1310593614861486,0.450988776110166,0.0102859313382322,1.893144100002246
16.0,4.0,0.0,-0.13240343905962038,0.4529133757009731,0.012535306135409242,1.7410423999972409
16.0,4.0,1.0,-0.13396860743546812,0.4551349691291693,0.014893485480749254,1.9062144000054104
16.0,4.0,2.0,-0.13579095105404482,0.45766131965842216,0.017391675244756974,4.647252399998251
16.0,4.0,3.0,-0.13790267087134755,0.4605333359949073,0.020078183379915182,2.147654499989585
18.0,4.0,-3.0,-0.15262971671605097,0.48375196277591836,0.009016747902748451,2.0860892000055173
18.0,4.0,-2.0,-0.153885302813506,0.4854615418814323,0.011580941415846967,2.280229199997848
18.0,4.0,-1.0,-0.15536670691337595,0.4874382500708525,0.01419268844000992,1.9803879000101006
18.0,4.0,0.0,-0.15715864739585594,0.48972926760654634,0.017050477183027737,1.9167273999919416
18.0,4.0,1.0,-0.15923505378190417,0.492337590860233,0.02004275361160419,2.0664557999989484
18.0,4.0,2.0,-0.16164242284596653,0.4953028529016815,0.02324463100748663,2.1356119999982184
18.0,4.0,3.0,-0.16443100652389753,0.4986668136825779,0.02671509004239178,1.9993965000030585
20.0,4.0,-3.0,-0.17603435219549535,0.5158813561970808,0.012455040028073378,2.662828399988939
20.0,4.0,-2.0,-0.1776712482625764,0.5178861760454628,0.015577387808693112,2.3743181999889202
20.0,4.0,-1.0,-0.17958189921133938,0.520178649964161,0.018767792398833125,2.240063300007023
20.0,4.0,0.0,-0.18188087296583844,0.5228213216189914,0.022295716279225164,2.4535839000018314
20.0,4.0,1.0,-0.18453233508847966,0.5258157503908316,0.02600656538121076,2.17202990000078
20.0,4.0,2.0,nan,nan,nan,15.00627070000337
20.0,4.0,3.0,nan,nan,nan,15.00636790000135
0.0,5.0,-3.0,0.0,3.0456577942625948e-15,4.772290980475181e-15,1.4598378000082448
0.0,5.0,-2.0,0.0,-3.18638114622482e-16,-5.631793759377976e-16,1.4529328999924473
0.0,5.0,-1.0,0.0,2.7057502923680415e-21,7.806688047171431e-22,1.6105220000026748
0.0,5.0,0.0,0.0,-7.28189239047819e-19,-1.747856636612032e-18,1.4809968000045046
0.0,5.0,1.0,0.0,2.3676529641392195e-19,4.722499290944501e-19,1.51090499998827
0.0,5.0,2.0,0.0,1.5630355377262862e-16,2.7624494857975753e-16,1.5050072999874828
0.0,5.0,3.0,0.0,6.932816032893646e-15,1.0865027663141935e-14,1.5442990000010468
0.5,5.0,-3.0,-0.00016655965853806798,0.016701313654712793,-5.77721015767315e-06,1.5629525999975158
0.5,5.0,-2.0,-0.00016592196217612987,0.016683715015514564,-3.003667188157325e-06,2.4459894000028726
0.5,5.0,-1.0,-0.00016471727947220405,0.016675455584504815,2.3543452827648998e-06,2.5805927000037627
0.5,5.0,0.0,-0.00016583895378707858,0.01667223377580917,4.253286706336622e-07,2.3754113000031793
0.5,5.0,1.0,-0.0001657812580182494,0.016678575308501815,1.7925619564656823e-06,2.550689700001385
0.5,5.0,2.0,-0.0001651145963851297,0.01669203314216702,5.523521112658212e-07,2.5873545999929775
0.5,5.0,3.0,-0.00016686473976701421,0.01671672239609326,6.572794155225363e-06,1.5590003000106663
1.0,5.0,-3.0,-0.0006647254722680351,0.03336261698321308,-2.160248655690173e-05,1.6070260999986203
1.0,5.0,-2.0,-0.0006631475751173177,0.033332180807438445,-1.2926916110752624e-05,1.4723459999950137
1.0,5.0,-1.0,-0.0006624979173976975,0.033317904210495505,-4.8264540777154485e-06,1.5121792999998434
1.0,5.0,0.0,-0.0006625457864287698,0.03331998375403023,3.442769785486679e-06,1.5618449999892619
1.0,5.0,1.0,-0.0006632665553868433,0.033338241067127294,1.1478933936614708e-05,1.6194017000088934
1.0,5.0,2.0,-0.0006649370747611183,0.033373110432247236,2.0122666435850764e-05,1.549341199992341
1.0,5.0,3.0,-0.0006671324148223023,0.033424223760352464,2.7897012780077e-05,1.5627955000090878
2.0,5.0,-3.0,-0.0026401114978396034,0.06646830591456176,-7.526868117000804e-05,1.49462090000452
2.0,5.0,-2.0,-0.0026363030274174637,0.06642837598057405,-4.0461843377144805e-05,1.5482295999972848
2.0,5.0,-1.0,-0.0026354595211672827,0.06642096923177904,-5.847545220820021e-06,1.5755857000040123
2.0,5.0,0.0,-0.0026372418052429403,0.0664460581497673,2.8787938943455485e-05,1.6563923999929102
2.0,5.0,1.0,-0.0026417936497773464,0.06650364642406045,6.335483282997225e-05,1.5505459000123665
2.0,5.0,2.0,-0.002649458827472362,0.06659381363464911,9.747371311284638e-05,1.5937172999983886
2.0,5.0,3.0,-0.0026609955425889176,0.06671699859427377,0.00013120412229550152,1.5283152999909362
3.0,5.0,-3.0,-0.005885598048566698,0.09913563373425245,-0.00012850952037520317,1.503175599995302
3.0,5.0,-2.0,-0.005879590270606361,0.09910526087561322,-5.449375816590836e-05,1.5557683999941219
3.0,5.0,-1.0,-0.005878773408386495,0.09912408342476345,2.042265486920956e-05,1.615001599988318
3.0,5.0,0.0,-0.005888833071931332,0.09918827800504135,9.068324183582468e-05,1.6822944000014104
